time,ecg_signal
12.23681926727295,2.920990338443558
12.23766040802002,2.9227009919525377
12.23850154876709,2.9237828163841746
12.239354848861694,2.9251215368654178
12.240197896957397,2.92505537570183
12.24103832244873,2.928314558066673
12.241878509521484,2.93002163529654
12.242717504501343,2.931363336010377
12.243568658828735,2.931903950202936
12.244415044784546,2.933035246495634
12.24525499343872,2.9331771055671103
12.246092796325684,2.9346278827938894
12.246958255767822,2.9354206246639043
12.247802019119263,2.9298821604111387
12.248642683029175,2.929955474132952
12.249481201171875,2.9359946174615166
12.25032091140747,2.936878554448909
12.251209020614624,2.936972133752362
12.252049207687378,2.9369637891010987
12.252888202667236,2.9380706474865255
12.253729104995728,2.929849973899123
12.254567384719849,2.929740897386181
12.255417346954346,2.92994653343517
12.256257772445679,2.939129226103929
12.257101774215698,2.939302675640902
12.257940769195557,2.939517252387673
12.25878095626831,2.938680999121785
12.25965404510498,2.9298863327367703
12.260502815246582,2.939380161688347
12.261348009109497,2.9392788337801496
12.262190341949463,2.9389092849384886
12.26304316520691,2.9393265175016543
12.263888597488403,2.9297081148276467
12.264729261398315,2.939082138428943
12.265568017959595,2.937919251670748
12.266404390335083,2.9386452363306566
12.267255306243896,2.9369453116590156
12.2680983543396,2.9370478316602506
12.268937587738037,2.936179987928866
12.269777297973633,2.9349479597744894
12.270618677139282,2.936077467927631
12.271470069885254,2.929768911572565
12.272310733795166,2.934850208145405
12.273150444030762,2.934399000930667
12.273988008499146,2.9350063723333326
12.274826049804688,2.9298416292478597
12.275715351104736,2.929887524829808
12.276558637619019,2.929695001804233
12.277398109436035,2.9334846655708153
12.27823781967163,2.932171575089881
12.27908992767334,2.9315195001983048
12.27993130683899,2.9310951150769133
12.28076982498169,2.929830900410521
12.281609296798706,2.9280397806215026
12.282448291778564,2.9267451675826512
12.28329873085022,2.9249886184917235
12.284141302108765,2.92332505265773
12.284985780715942,2.9223379996225836
12.285823822021484,2.9211125279799135
12.286694526672363,2.9203883314595616
12.287550926208496,2.9189309977210756
12.288390874862671,2.919404854703528
12.289233446121216,2.919168224235561
12.29007077217102,2.9182228944567314
12.290926218032837,2.9152492183743974
12.291781425476074,2.913721551146692
12.292620182037354,2.912761320204892
12.293460130691528,2.912429322293916
12.294300556182861,2.911258090884458
12.295149803161621,2.9101863992436408
12.296017169952393,2.890749918311825
12.296862602233887,2.9084000478267726
12.29770278930664,2.9074100145590323
12.298542499542236,2.9054764396520185
12.299393653869629,2.8908321727314203
12.300239324569702,2.9019621493771255
12.301082372665405,2.9016271712335553
12.301919937133789,2.900503027499083
12.302759885787964,2.900162088890325
12.303611516952515,2.900207388425754
12.304457187652588,2.8996155142325777
12.305299758911133,2.8978822109558835
12.306138277053833,2.89073740133493
12.30700135231018,2.896195995354175
12.307844400405884,2.8908786643598874
12.308685064315796,2.895087348829192
12.309525966644287,2.895311462320264
12.310363054275513,2.8940818183519625
12.311214208602905,2.894236194400334
12.312056064605713,2.8929976097342505
12.312894105911255,2.8925994506596866
12.313730955123901,2.8913668264587913
12.314567565917969,2.8908291924988263
12.315419912338257,2.8881028757217972
12.316261053085327,2.888183938048355
12.317098379135132,2.886789785240863
12.31793737411499,2.8868630989626762
12.318778276443481,2.886559711284603
12.319644212722778,2.886257515699567
12.320502996444702,2.8846553426570107
12.321342706680298,2.884442554049796
12.32218074798584,2.8839502196252607
12.323030948638916,2.8821239330916324
12.32387375831604,2.882103071463474
12.324712753295898,2.8816923954120153
12.325551986694336,2.881012306334055
12.326389789581299,2.8809699870312198
12.327238082885742,2.8804019546987956
12.328076839447021,2.8804216242339162
12.328915119171143,2.879647955852503
12.329753875732422,2.878946409099866
12.330595016479492,2.8774282786164616
12.331443786621094,2.875923261156471
12.332286834716797,2.8750953525418463
12.333125352859497,2.874021872761473
12.333962678909302,2.8732327071705708
12.334799528121948,2.888215528513852
12.335646867752075,2.8716949071520457
12.336489200592041,2.871455296451485
12.337327241897583,2.8707668627222613
12.338165521621704,2.8688094459544953
12.339032888412476,2.868643148975748
12.33987307548523,2.8683266482742606
12.340708255767822,2.868272408041049
12.341545343399048,2.8672925075641285
12.342384815216064,2.851643902259338
12.343241453170776,2.865295751726121
12.344084739685059,2.851859075052628
12.344954252243042,2.8640267686875784
12.345792770385742,2.8630784586761546
12.346630334854126,2.861654503542722
12.34747838973999,2.861231310514368
12.34831953048706,2.861305816329219
12.34915804862976,2.858952624672964
12.349995851516724,2.851775032493476
12.350833415985107,2.8555670804461335
12.351683855056763,2.8548309629954054
12.352526903152466,2.854214054848439
12.35336685180664,2.8517422499349414
12.35420536994934,2.852295977150914
12.355058431625366,2.851711851562482
12.355903625488281,2.8507194341086666
12.35674500465393,2.850445252710015
12.35758352279663,2.8494993268846662
12.358420610427856,2.850336176197073
12.359270334243774,2.849278789672707
12.360111951828003,2.847393494533717
12.360953330993652,2.846349817079284
12.361793041229248,2.8453067356713695
12.36263656616211,2.844944339387934
12.363486528396606,2.8440800719356623
12.364327907562256,2.8431031516913357
12.36516785621643,2.842136364237829
12.366004943847656,2.8468385752247065
12.366862535476685,2.834458092982542
12.367743253707886,2.8347948592656684
12.36863398551941,2.8352240127592103
12.369475364685059,2.8347233336834115
12.370315074920654,2.83227358249111
12.371164798736572,2.832928041568761
12.372005939483643,2.8323558369107054
12.372847318649292,2.8321782150481005
12.373685836791992,2.8316322364368722
12.374523639678955,2.831256727130023
12.375375032424927,2.8292921578040313
12.37621784210205,2.8294185196660186
12.37705659866333,2.8287473712858406
12.377897024154663,2.8289619480326116
12.378738164901733,2.82790217732217
12.379621505737305,2.812729813185908
12.380471229553223,2.827899197089576
12.381312847137451,2.8269073756822793
12.382150650024414,2.826803067541488
12.38301134109497,2.825765350552243
12.383851289749146,2.8243342428605844
12.384689569473267,2.8231814888932094
12.385526418685913,2.8126344457428987
12.38636302947998,2.8233245400577234
12.387216091156006,2.81253371388122
12.388059139251709,2.8224859026057603
12.38890266418457,2.8234663991291997
12.389741897583008,2.8235629586652466
12.390580892562866,2.827263215454008
12.391435384750366,2.827188709639157
12.392281293869019,2.823114135636584
12.39315390586853,2.8233340768020243
12.394010305404663,2.819777467224296
12.394910335540771,2.817983963249202
12.395784616470337,2.8126934543482607
12.396631479263306,2.820242979555485
12.397475242614746,2.8203747058361417
12.398315668106079,2.820731141654389
12.399169206619263,2.8125134482995806
12.400012969970703,2.819857933504335
12.400856256484985,2.8207144523518624
12.401698350906372,2.820753195375585
12.402535438537598,2.822483518419685
12.403387069702148,2.821312287010227
12.404226303100586,2.8229049233084824
12.405064821243286,2.8127941862099393
12.40590238571167,2.8243926554194276
12.406740665435791,2.8248158484477814
12.407597064971924,2.824612000538349
12.408441305160522,2.8246114044918302
12.409281015396118,2.8298011815310935
12.410119771957397,2.827141025917652
12.410979509353638,2.8252038747315256
12.41182279586792,2.8268513473095114
12.412698030471802,2.8279629740670886
12.41353464126587,2.827219704058135
12.41437292098999,2.8284362350030228
12.41522765159607,2.828064301975286
12.416069507598877,2.8293034826878887
12.416908502578735,2.8297171389719415
12.417746305465698,2.83004794478988
12.418582677841187,2.830197552466101
12.419432163238525,2.82926771989676
12.420272588729858,2.8299346959513065
12.421115398406982,2.829820851066214
12.421953678131104,2.8302392757224175
12.422791004180908,2.812571860858424
12.42363953590393,2.8318182029507404
12.424482107162476,2.831818798997259
12.425322771072388,2.8326622048213728
12.426161050796509,2.8321525850477918
12.427034139633179,2.8127786890004502
12.427880048751831,2.8314814366676138
12.428719758987427,2.8309008873582946
12.429558277130127,2.831719855275137
12.430399417877197,2.8317097224843173
12.431251525878906,2.832052449232632
12.432093620300293,2.8306708134020346
12.432936191558838,2.8303733861891494
12.433773756027222,2.830887178288362
12.434611082077026,2.812685705743516
12.435466527938843,2.829364279432807
12.436310291290283,2.8297427689722503
12.437195062637329,2.8317872085317624
12.438035726547241,2.8317121066703925
12.438875913619995,2.8125051036483173
12.439746379852295,2.8314021624806123
12.440587997436523,2.831415275504026
12.441427230834961,2.8323176899335016
12.442264795303345,2.8126946464412983
12.443117141723633,2.8313354052705058
12.443959951400757,2.8320780792329407
12.444798707962036,2.832242588072132
12.445638179779053,2.832794527148548
12.44647765159607,2.833714822973588
12.447326421737671,2.834472398098993
12.448169469833374,2.8321883478389203
12.449007034301758,2.834044436698489
12.449846744537354,2.846958380574987
12.450685977935791,2.8337136308805504
12.451534986495972,2.8321370878383028
12.452372550964355,2.8321603336525363
12.453209638595581,2.8328028717998115
12.454047203063965,2.8338531057659515
12.45490574836731,2.8468332108060372
12.455758094787598,2.8337100546014375
12.456600904464722,2.8350642722921697
12.457460403442383,2.8350738090364707
12.458297491073608,2.836984138129251
12.459145545959473,2.836495379983828
12.459986925125122,2.837798337673943
12.460826635360718,2.8390238093166125
12.461671352386475,2.838801483965097
12.462509870529175,2.841865163071771
12.46336030960083,2.8409722853865964
12.46419906616211,2.8411308337605994
12.465037822723389,2.8413352777165506
12.465877294540405,2.8418019821407774
12.466717004776001,2.849341970603701
12.467566967010498,2.8429505637825208
12.468408346176147,2.843419056346304
12.469244956970215,2.8442165665884693
12.470082521438599,2.8450492435752444
12.47094464302063,2.846222263124259
12.47181749343872,2.847285014067294
12.47265911102295,2.8487864552481716
12.473499059677124,2.849264484556256
12.474345684051514,2.8515682043514494
12.475198745727539,2.8468141373174354
12.476040840148926,2.8524104180825254
12.476879119873047,2.852163654823739
12.477717638015747,2.8516117157473224
12.478560209274292,2.852402073431262
12.479410648345947,2.8530475918111313
12.480251550674438,2.8531900469291265
12.481091976165771,2.8526118818058825
12.48196291923523,2.8524169745942323
12.48280143737793,2.849366408510972
12.483653783798218,2.8517237724928584
12.484498262405396,2.8514716448154025
12.48534083366394,2.8518376173779507
12.486180305480957,2.851239782719586
12.487031936645508,2.8516278090033302
12.487872123718262,2.852128488079129
12.488711595535278,2.851553303188479
12.489551305770874,2.8512224973705407
12.4903883934021,2.8523162427325537
12.491235494613647,2.851619464352067
12.492076873779297,2.8514007152796643
12.492916345596313,2.8517768206330323
12.49375605583191,2.850112062706001
12.494593858718872,2.8491786538575474
12.49544072151184,2.848468166407128
12.49627947807312,2.849121433391742
12.497119426727295,2.8472027596476983
12.497962474822998,2.8474685963950868
12.498801946640015,2.8451916986932395
12.499652624130249,2.845907550562328
12.500495910644531,2.8459307963765617
12.501336336135864,2.8451607042742615
12.502177715301514,2.8446010165931006
12.503035306930542,2.8448585086892257
12.503878593444824,2.8442821317055382
12.504720687866211,2.843735557047791
12.505560398101807,2.8428951314562716
12.506423711776733,2.8424016049386984
12.5072762966156,2.840893011199595
12.508117437362671,2.846839767317744
12.508955001831055,2.8467229422000577
12.509795665740967,2.84938250176698
12.510637998580933,2.849351507348002
12.511487245559692,2.8407922793379163
12.512327909469604,2.846697908246268
12.51316523551941,2.84008536816661
12.514002561569214,2.8389236735014527
12.514840841293335,2.8362545771902297
12.515701532363892,2.8366431995204926
12.516542911529541,2.8354499143898386
12.517386436462402,2.846725326386133
12.518224954605103,2.8351548713630286
12.519071102142334,2.8321072855123623
12.519908905029297,2.835544685786329
12.520745754241943,2.8347608846140964
12.521583080291748,2.834712604846073
12.522419929504395,2.8343013327480953
12.523268699645996,2.8324893513309184
12.524110078811646,2.8330240050582893
12.524949550628662,2.831772903415311
12.525789976119995,2.831878999695659
12.526628494262695,2.832732538310592
12.527477741241455,2.8322533169094704
12.528317213058472,2.8326294222628383
12.529155254364014,2.8320447006278875
12.529993295669556,2.832375506445826
12.530839681625366,2.830731610146953
12.531692028045654,2.831105331314246
12.532532930374146,2.83013794781422
12.533372402191162,2.830508688748919
12.534213542938232,2.8309473789867616
12.535086393356323,2.8309753931731456
12.53592824935913,2.8315255441100056
12.536767959594727,2.8305277622375207
12.537606716156006,2.829825023391846
12.538443803787231,2.8301176822325806
12.53929615020752,2.828714588727306
12.540138244628906,2.82853756291122
12.54098105430603,2.828979829428176
12.541819095611572,2.829342225711611
12.542657136917114,2.8281483445344384
12.543505668640137,2.828876713380422
12.544344902038574,2.8280851636034443
12.545184850692749,2.827775219413664
12.546021938323975,2.827663758714647
12.546859502792358,2.82555673427066
12.547728061676025,2.826734522191825
12.548571348190308,2.8260711224163915
12.54941439628601,2.825658658225376
12.550251722335815,2.825947740786998
12.551105260848999,2.8260282070670373
12.551944971084595,2.8264406712580525
12.552782535552979,2.8268263133557214
12.5536208152771,2.826722601261449
12.554462194442749,2.8282127175584697
12.55531907081604,2.826489547072595
12.55616283416748,2.827682832203249
12.557002782821655,2.82790217732217
12.55784010887146,2.827166655917961
12.55867600440979,2.8279349598807046
12.559539079666138,2.83003304362691
12.560380220413208,2.8299013173462533
12.561218976974487,2.829125860825284
12.562058448791504,2.8305057085163248
12.562911033630371,2.828380206630255
12.563758134841919,2.8288099561703155
12.56462550163269,2.829870918973794
12.565467834472656,2.829143742220848
12.566310167312622,2.8297767436238224
12.567159175872803,2.829895356881065
12.567999601364136,2.812754251093179
12.568840265274048,2.829809526182357
12.569679021835327,2.8296247517615263
12.57051706314087,2.8298411166478536
12.571365356445312,2.8125229850438815
12.572209119796753,2.829544881528006
12.57304573059082,2.8299037015323285
12.573885679244995,2.8291765247793825
12.57472848892212,2.826911548007911
12.57558560371399,2.8277495894133553
12.576427698135376,2.827315667547663
12.577265977859497,2.826824525216165
12.578105926513672,2.827175596615743
12.578965425491333,2.8272828849891285
12.57985234260559,2.8262141735809054
12.580692768096924,2.8259185345075766
12.58152961730957,2.8256974012490987
12.5823655128479,2.8252503663599926
12.583213090896606,2.8244021921637286
12.584051132202148,2.8240797309970533
12.584889888763428,2.8233340768020243
12.585724592208862,2.823145726102081
12.586561918258667,2.8223726537671867
12.587416410446167,2.8217891242252735
12.588258743286133,2.8219315793432687
12.58909797668457,2.812571860858424
12.589936256408691,2.8201201939726106
12.590773582458496,2.820994594215702
12.59162187576294,2.8233060626156403
12.59256386756897,2.802192306779898
12.59353756904602,2.7895608889533148
12.59443211555481,2.7895734059302097
12.595357179641724,2.7860096437942556
12.596216440200806,2.786475156125445
12.597063064575195,2.7886328445235304
12.597907781600952,2.789594863604887
12.598748922348022,2.7870378240391998
12.599673748016357,2.7851835233191875
12.600539922714233,2.773597571086594
12.601390361785889,2.7879086480031785
12.602235555648804,2.790219520356598
12.603096723556519,2.7881047473078664
12.603947162628174,2.789755796164965
12.604792594909668,2.791576718279924
12.605634450912476,2.793646787839745
12.606476545333862,2.7949771636697247
12.607331037521362,2.79665980299232
12.60817551612854,2.7983412502218785
12.609015464782715,2.799775338146131
12.609857320785522,2.8016665937503094
12.610697746276855,2.8013614179326796
12.611565828323364,2.8002801895475615
12.61241602897644,2.8026673558553883
12.613303422927856,2.8102419150164026
12.61414647102356,2.806691861950381
12.615015029907227,2.8064737089244973
12.615860223770142,2.8085264931352727
12.616705417633057,2.8099778664085706
12.617547512054443,2.8112551940983765
12.618388652801514,2.812702395046043
12.61924409866333,2.8120848908525575
12.620092153549194,2.8125164285321747
12.62093186378479,2.8151294964706297
12.621771812438965,2.8174385806844926
12.62261176109314,2.8127709403957057
12.62346363067627,2.8194240116386426
12.62430739402771,2.8126785531852905
12.625148296356201,2.8216186549208944
12.6259925365448,2.8231975821492172
12.626830339431763,2.8218165423651387
12.627683162689209,2.822583058188326
12.62852430343628,2.8233901051747923
12.629364728927612,2.8246733933297863
12.63020372390747,2.829787472461161
12.631050825119019,2.82582674334368
12.631889820098877,2.826081255207211
12.632727861404419,2.826380470559653
12.63356637954712,2.8267738612620663
12.63440465927124,2.827278712663497
12.635255336761475,2.8265968354459803
12.636099338531494,2.8272179159185784
12.636937618255615,2.827834824065545
12.63781189918518,2.8292039429192477
12.638650178909302,2.8297272717627613
12.639500379562378,2.8308013475896536
12.640341758728027,2.8125784173701307
12.641183137893677,2.8304288185153985
12.642021417617798,2.831878999695659
12.642863988876343,2.8287908826817136
12.64372992515564,2.829815486647545
12.644573450088501,2.812642194347643
12.645413637161255,2.830710748518795
12.646252155303955,2.8272948059195047
12.647100925445557,2.8304186857245788
12.647943496704102,2.829808930135838
12.648785591125488,2.829588392923879
12.649623155593872,2.8291824852445706
12.650464057922363,2.8290430103591695
12.651314973831177,2.82729719010558
12.652158260345459,2.8279474768575996
12.652998447418213,2.8270009549857322
12.653836727142334,2.827911714066471
12.65467381477356,2.8272059949882022
12.655523300170898,2.827980259416134
12.65636396408081,2.8281978163954995
12.65720272064209,2.828364113374247
12.658073663711548,2.8292540108268276
12.658936500549316,2.8281364236040623
12.659782886505127,2.8285280261669192
12.660624980926514,2.829395273851785
12.661466598510742,2.8284255061656842
12.662313461303711,2.82851252895743
12.663171768188477,2.828970292683875
12.664017677307129,2.8276065382488413
12.664859294891357,2.827274540337865
12.665699243545532,2.8265688212595963
12.666539430618286,2.8267667087038406
12.667393445968628,2.827179172894856
12.668238162994385,2.8245452433282425
12.669078826904297,2.823486664710839
12.669921159744263,2.8272357973141427
12.67076063156128,2.8127196803950882
12.671609878540039,2.8231975821492172
12.672451496124268,2.8230604914498914
12.673290491104126,2.8236696509921133
12.674129009246826,2.821026184681199
12.675205707550049,2.8083035717372384
12.676098585128784,2.807913161267419
12.677134990692139,2.8020385267780457
12.678047180175781,2.8076199063801655
12.678932428359985,2.8059390551971264
12.679790735244751,2.807646728473512
12.680636167526245,2.8070381649778087
12.681785821914673,2.799837326984087
12.682791948318481,2.8035119537725395
12.683844804763794,2.7892104136002556
12.68477749824524,2.7940324299374137
12.685640573501587,2.795553540653412
12.686490058898926,2.7951053136712685
12.687358379364014,2.7966431136897936
12.68820858001709,2.798871135577099
12.68905520439148,2.799072599300456
12.689897537231445,2.7931514731826153
12.69074034690857,2.810243703155959
12.691638946533203,2.801878786311005
12.692486047744751,2.810274697574937
12.693329334259033,2.8034428123763577
12.694170951843262,2.803364134235875
12.69504451751709,2.8035608295870817
12.695893287658691,2.810275293621456
12.69673204421997,2.8021660807330706
12.697572469711304,2.801378107235206
12.698410987854004,2.802288866315945
12.699265003204346,2.801124191418194
12.70010757446289,2.8016779186341667
12.70095419883728,2.8029027942303175
12.701794385910034,2.802742457716758
12.702634572982788,2.8032687667928657
12.703488826751709,2.8038791184281253
12.704331636428833,2.8042796616887644
12.705172777175903,2.8044346337836545
12.706011533737183,2.804815507509173
12.706849813461304,2.8053477770504687
12.70780873298645,2.8054812914706817
12.708660364151001,2.8067836531142776
12.709503889083862,2.8080448875480757
12.710345268249512,2.808056212431933
12.711233615875244,2.8097942840807777
12.712080001831055,2.8098097812902667
12.712922811508179,2.8107461703713144
12.713764429092407,2.8100493919908276
12.714605808258057,2.8095671903571118
12.715461015701294,2.809727526870671
12.71630573272705,2.81027827385405
12.71714735031128,2.8099713098968637
12.717988729476929,2.810113765014859
12.718831300735474,2.8093782436106496
12.71968936920166,2.8093567859359725
12.720534324645996,2.80962798710203
12.721376657485962,2.809877730593411
12.722216367721558,2.8108200801396466
12.723070859909058,2.809855676872215
12.723913669586182,2.810659743626087
12.724756002426147,2.8111407531667654
12.725598096847534,2.810979820606687
12.726440668106079,2.8126034513239206
12.727293729782104,2.8114322199144626
12.728137254714966,2.8123125806227423
12.72897744178772,2.8122005238772063
12.729816198348999,2.8114578499147713
12.73065996170044,2.8112993015407683
12.731566905975342,2.809930182687066
12.73241925239563,2.8094318877973423
12.733261585235596,2.8094563257046135
12.734102725982666,2.8093168508192123
12.734971761703491,2.809224463608797
12.73581838607788,2.8092041980271576
12.736664533615112,2.809392548727101
12.737504482269287,2.8088960419769338
12.738340854644775,2.808976508256973
12.739193201065063,2.810526825252393
12.74003553390503,2.810964919443717
12.740875244140625,2.8110817445614034
12.74171257019043,2.810889817582347
12.742551565170288,2.810135818736055
12.74340558052063,2.8112265838654737
12.744248628616333,2.8110692275845084
12.745088577270508,2.810224629667357
12.74592661857605,2.8108397496747672
12.746766090393066,2.8102615845515233
12.747616052627563,2.8102615845515233
12.748457431793213,2.810249663621147
12.749294996261597,2.8100970757123322
12.750134468078613,2.808867431744031
12.750994682312012,2.8069118031158213
12.75183916091919,2.807319498934686
12.75271463394165,2.808075285920535
12.753558158874512,2.8072438010267975
12.754398107528687,2.8065541752045364
12.755276918411255,2.80792269801172
12.756122589111328,2.807428575447628
12.756960391998291,2.807438112191929
12.757795810699463,2.806095219385054
12.758631229400635,2.807906604755712
12.75948166847229,2.8049162393708515
12.760325193405151,2.8042415147115607
12.761166334152222,2.8037175898215283
12.762005805969238,2.802833056787617
12.762845754623413,2.8020081284055864
12.76371169090271,2.8000167369862483
12.764554262161255,2.799486255584509
12.76539397239685,2.798516487898408
12.766232967376709,2.7978870627745467
12.76708436012268,2.7959624285653146
12.767926454544067,2.794961070413717
12.768768310546875,2.7944186680816014
12.769607067108154,2.7935394994663594
12.770443677902222,2.792816495039045
12.771293640136719,2.791660760839076
12.772134065628052,2.788140510098995
12.77297306060791,2.77370962783213
12.773812532424927,2.7899596440743974
12.774650573730469,2.788830135921256
12.775501251220703,2.7882197842859964
12.77634334564209,2.787359689159356
12.777183532714844,2.7861413700749122
12.77802038192749,2.7863982661245186
12.778861045837402,2.7827784756157965
12.779765129089355,2.7834025363209887
12.780608415603638,2.7819827535131876
12.781453609466553,2.780989740012853
12.782293319702148,2.779880497441351
12.783149719238281,2.7783719037022476
12.783995866775513,2.778013083697925
12.784836530685425,2.7767774792644357
12.78567624092102,2.775879237160592
12.78651475906372,2.7751657694775784
12.787367343902588,2.773722740855544
12.78821325302124,2.7728727785197234
12.78905177116394,2.7723601785135483
12.789888381958008,2.771624657109339
12.790725708007812,2.7709868873342143
12.791574716567993,2.768780919168105
12.79241418838501,2.7699634754614206
12.793253183364868,2.768622966840621
12.794095754623413,2.7682307682312453
12.795001745223999,2.7712217296626247
12.795885801315308,2.7608391953515046
12.796737670898438,2.7601626825526573
12.797582626342773,2.7712044443135793
12.79842472076416,2.754153341550033
12.799321413040161,2.7571949669355114
12.800166845321655,2.7571907946098797
12.801010608673096,2.756851048094159
12.801849603652954,2.7560475773868056
12.802688837051392,2.7559265799434876
12.803543090820312,2.7560827441314153
12.80438494682312,2.7557930655232745
12.805224418640137,2.755117744817465
12.806064367294312,2.754516929926506
12.806915044784546,2.7522173824569443
12.80777096748352,2.7529368106051457
12.808613061904907,2.7526668015321256
12.809455871582031,2.752958268279823
12.81029486656189,2.7535179559609837
12.811143636703491,2.7534011308432973
12.811986207962036,2.7525374594375442
12.812830448150635,2.7344951313132206
12.813671350479126,2.7527639571146914
12.814512252807617,2.752122015013935
12.815362930297852,2.7345827501514854
12.816202640533447,2.7499392926620594
12.817043542861938,2.7501473128971234
12.817883968353271,2.749166816373684
12.818724870681763,2.749129265442999
12.81960415840149,2.748905151951927
12.820445775985718,2.749496430098585
12.821284294128418,2.7492001949787372
12.822122573852539,2.744151084917913
12.822985172271729,2.7479568419405034
12.823829650878906,2.7481237349657697
12.824669122695923,2.7476546463554676
12.825510263442993,2.7477422651937324
12.826348543167114,2.7477822003104926
12.827202320098877,2.7477011379839347
12.828044414520264,2.7487185893915402
12.828883647918701,2.747650474029836
12.829723596572876,2.734671561082788
12.830562353134155,2.7343997638702113
12.831417560577393,2.747952073568353
12.832260847091675,2.7490195928835384
12.833102226257324,2.749319404282499
12.83394169807434,2.7493289410268
12.834780931472778,2.7495691477738795
12.8356454372406,2.73464056666381
12.836492538452148,2.7516851129156485
12.837335109710693,2.751903861988051
12.838175058364868,2.7524254026920083
12.839031219482422,2.751410335470478
12.8398756980896,2.7536705438697986
12.840715646743774,2.7541551296895896
12.84155535697937,2.7550688690029226
12.842394590377808,2.756179899713981
12.843294382095337,2.7585509727658
12.844136953353882,2.7604255390674517
12.845008373260498,2.754203409457613
12.845854043960571,2.764280767951103
12.8466956615448,2.764637799815869
12.847549438476562,2.765281530056182
12.848392248153687,2.7659866530879325
12.849235534667969,2.7667638977484583
12.850074768066406,2.7711657012898567
12.850937128067017,2.768954964751597
12.851780891418457,2.7706912482608854
12.852620363235474,2.770767542215293
12.853459119796753,2.771030994776606
12.854296922683716,2.773124906197179
12.855149269104004,2.773132058755405
12.85599160194397,2.7747652262169393
12.856830835342407,2.7767870160087367
12.857670545578003,2.7779344055574424
12.858508825302124,2.7783194516085925
12.85935926437378,2.7813747860640032
12.860201358795166,2.7826109865440114
12.86104154586792,2.7832034567837067
12.861884355545044,2.788122032656912
12.862721920013428,2.785014842154365
12.863570928573608,2.784824703314865
12.8644118309021,2.7860722286787305
12.865252494812012,2.7859977228638795
12.866095781326294,2.7862313730992523
12.866962909698486,2.787584398696947
12.86781930923462,2.788202498936951
12.868659973144531,2.7893069731363025
12.869499683380127,2.790426944545143
12.870337009429932,2.791595791768526
12.871185541152954,2.7904561508245647
12.872030019760132,2.792648409920741
12.872869491577148,2.7933088294635806
12.87371015548706,2.795056437856726
12.87455153465271,2.795868253215343
12.875398874282837,2.7961966748472062
12.876240730285645,2.7969888206707028
12.877080202102661,2.7973369118376867
12.87792158126831,2.798087930451385
12.878762006759644,2.796781396482157
12.879613161087036,2.7968362327618874
12.880452871322632,2.7967837806682323
12.881293535232544,2.7967837806682323
12.882131099700928,2.797069286950742
12.882995843887329,2.7972415443946774
12.883837461471558,2.7969268318327467
12.884675979614258,2.7966371532246055
12.885513544082642,2.797655796725249
12.886351108551025,2.798166012545349
12.887202978134155,2.7977195737027616
12.888045072555542,2.797046637183027
12.888884782791138,2.796888684855543
12.889723300933838,2.7973994967221616
12.890566110610962,2.79759023160818
12.891416311264038,2.796443438105993
12.892283201217651,2.7973720785822964
12.893122434616089,2.7969339843909724
12.893961668014526,2.7961734290329727
12.894801616668701,2.7948013299466763
12.895654201507568,2.7960154767054886
12.89649748802185,2.7951017373921556
12.89733624458313,2.7948102706444584
12.898175477981567,2.795305585301588
12.8990638256073,2.7947321885504945
12.899908542633057,2.7933213464404756
12.900749444961548,2.7927348366659683
12.901589155197144,2.793121670856675
12.902735948562622,2.789444659882147
12.903675556182861,2.7889922605743718
12.904543161392212,2.7899161326785245
12.905392408370972,2.7906802643156365
12.906237840652466,2.7921191206120395
12.90710163116455,2.7916941394441293
12.908374071121216,2.7923396578239985
12.909318685531616,2.7933565131850853
12.910181522369385,2.7942636959867113
12.911063194274902,2.8101370108290924
12.911915063858032,2.7924672117790235
12.91275954246521,2.7928862324817456
12.913602590560913,2.792965506668747
12.914446830749512,2.7924231043366317
12.915306568145752,2.7929821959712737
12.91615343093872,2.7939710371459765
12.916998624801636,2.792537545268243
12.917839527130127,2.7921507110775363
12.91868281364441,2.7926472178277035
12.919535875320435,2.773452135736005
12.920403957366943,2.789758776397559
12.921396017074585,2.783528302136457
12.922296524047852,2.785644863324745
12.923172950744629,2.788572643825131
12.924026250839233,2.789764736862747
12.924872398376465,2.7883681998691796
12.925715923309326,2.7922067394503043
12.926562786102295,2.7925017824771143
12.927423000335693,2.7881381259129197
12.928269386291504,2.7930102101576577
12.929115295410156,2.7945855611068677
12.92995572090149,2.7952579015800834
12.930797576904297,2.7958509678662975
12.931653022766113,2.7961209769393176
12.932498693466187,2.793201541090195
12.933340072631836,2.7982321737089366
12.934180498123169,2.8102603924584857
12.93503451347351,2.7993575095364465
12.935880661010742,2.8013518811883786
12.936724662780762,2.803184724233714
12.937567472457886,2.8042510514558616
12.938408374786377,2.8056314951934214
12.939295291900635,2.8086761008114935
12.940143585205078,2.811947204106713
12.940987586975098,2.8125206008578063
12.941833257675171,2.8154310960091466
12.942673444747925,2.81652960974331
12.9435293674469,2.818593718837943
12.94437313079834,2.820484974442121
12.945213079452515,2.8222963598127793
12.946089744567871,2.8264651091653237
12.946959733963013,2.8291479145464797
12.947806358337402,2.831831315974154
12.948646545410156,2.832966188545965
12.949487686157227,2.849406939674251
12.95032811164856,2.83213351155919
12.951184034347534,2.84019027235392
12.952026844024658,2.843207459832127
12.952867984771729,2.8464374359175486
12.953712940216064,2.8495857536298934
12.954552412033081,2.8530160013456345
12.955402135848999,2.856242997198462
12.956244945526123,2.858968717928972
12.957083225250244,2.8623483016906146
12.957921743392944,2.8655091363798544
12.958760976791382,2.867635830358962
12.959614515304565,2.8703216159727116
12.960456609725952,2.871249064355977
12.961296796798706,2.877292976056692
12.962135076522827,2.879900679576478
12.963003873825073,2.8827444175177117
12.963846921920776,2.8863713605846595
12.964688539505005,2.889197217130329
12.9655282497406,2.892141686933242
12.96640133857727,2.8907225001719596
12.967277765274048,2.8953740472047387
12.968127727508545,2.89810394026088
12.968969345092773,2.8906545508688155
12.969812870025635,2.9048821812727668
12.970654487609863,2.908153880614505
12.97150993347168,2.9120150699633442
12.972355127334595,2.914800395345735
12.973193883895874,2.9184344909709083
12.974032402038574,2.9221180584571433
12.974873781204224,2.9275361213131097
12.9757399559021,2.9261193187379027
12.97658371925354,2.9298607027364616
12.977424144744873,2.9297498380839633
12.978267431259155,2.9368177577039907
12.97911810874939,2.9402682710013712
12.97995924949646,2.942931406847406
12.980799436569214,2.945977204558516
12.98163890838623,2.948186749003738
12.982476234436035,2.9508975685712775
12.98332405090332,2.95327698627436
12.984169006347656,2.955493087231289
12.98500919342041,2.95715307678617
12.985853672027588,2.959747667282542
12.9866943359375,2.9625079587111425
12.987544298171997,2.962475176152608
12.988507270812988,2.955456132347123
12.989386558532715,2.9595718335594934
12.990242719650269,2.963552828258613
12.991113662719727,2.9661563594527673
12.991959571838379,2.9689434729747144
12.992799997329712,2.972717639531808
12.993642807006836,2.976588961671467
12.994521617889404,2.975280639562683
12.995394706726074,2.968966122742429
12.996273756027222,2.979969141479628
12.997129201889038,2.98370396896648
12.99797773361206,2.9870609029604083
12.998819828033447,2.9887357936782593
12.9996817111969,2.9917732467381057
13.000529289245605,2.9940948479288636
13.001372337341309,2.995463966782566
13.002214431762695,2.999270319851675
13.003071784973145,3.001461386854814
13.00391697883606,3.0057719952788347
13.004796504974365,3.0080620060040957
13.00563931465149,3.012237907914866
13.006477117538452,3.015624644234734
13.007328748703003,3.0227235582737397
13.008172273635864,3.022685411296536
13.009013175964355,3.0240324764290425
13.009852647781372,3.026616338088076
13.010692358016968,3.0280659232218174
13.011547803878784,3.0297414099861872
13.012391328811646,3.031998042106395
13.01323413848877,3.0444631629542305
13.014073610305786,3.036336068670281
13.014944314956665,3.038523559394307
13.015790224075317,3.0407402563977546
13.016629934310913,3.0426356843275646
13.017473459243774,3.0440089755068986
13.018312931060791,3.0463681276283414
13.019163846969604,3.0468592699598394
13.020004987716675,3.0468759592623664
13.02084493637085,3.0496881067381034
13.02168345451355,3.051669365366622
13.022525787353516,3.0525252881676304
13.023379802703857,3.047036295775926
13.024222135543823,3.056469327982584
13.02505874633789,3.0573222705509986
13.025897979736328,3.058678872427806
13.026735544204712,3.0590376924321285
13.027586460113525,3.0588916610350205
13.02842926979065,3.0601350140732544
13.029292345046997,3.060760862918003
13.030132055282593,3.0608174873372898
13.030999183654785,3.062124617353036
13.031840324401855,3.0620739533989374
13.032712697982788,3.0468795355414793
13.033556699752808,3.0637828187683604
13.034399509429932,3.063946135514514
13.03525161743164,3.062683708987678
13.036093711853027,3.0624059513099136
13.036933183670044,3.0616161896724927
13.037771940231323,3.064010508538545
13.038611888885498,3.046918278565202
13.039464712142944,3.060223825004557
13.040313005447388,3.061799175953767
13.0411536693573,3.0596802305794037
13.041992902755737,3.0590663026650313
13.04283332824707,3.0560383863494858
13.043687343597412,3.0563590593766046
13.044532060623169,3.0556950635546523
13.045377969741821,3.0469653662401877
13.046221256256104,3.0541870658620676
13.047074794769287,3.0526737037508136
13.04792046546936,3.0517391028093224
13.04880166053772,3.0470780190322424
13.049640655517578,3.0485264120729463
13.050487995147705,3.046108251346141
13.051344633102417,3.0430427840999106
13.052191972732544,3.044471507605494
13.053032398223877,3.039934401504326
13.053873062133789,3.0446801238870767
13.054715394973755,3.0360088391314553
13.055568218231201,3.0275306734479277
13.056413412094116,3.0332950393313216
13.057254552841187,3.029957178825996
13.058109521865845,3.028316262759717
13.058980226516724,3.02533901039827
13.059828758239746,3.022881510601224
13.06067180633545,3.020482423363021
13.061512231826782,3.019288542185848
13.062354326248169,3.0171779414627484
13.063206672668457,3.0156127233043577
13.064048290252686,3.0131009832741
13.064893960952759,3.011209131623403
13.065735101699829,3.0088946829908707
13.066574335098267,3.006124854817969
13.067424535751343,3.0029300454771573
13.068267583847046,3.000992298244512
13.069119453430176,2.9995051621800854
13.069963216781616,2.997589468668636
13.07080364227295,2.996458172375938
13.071655511856079,3.003036737804024
13.072498083114624,2.9922488918601147
13.073354244232178,2.9901800143933315
13.074196100234985,2.9884157166976593
13.075046062469482,2.9865936024896627
13.075886249542236,2.9844120722308247
13.076728820800781,2.9838523845496634
13.077568531036377,2.9817137696401796
13.078407764434814,2.9791853403073953
13.079257488250732,2.978577372858211
13.080100536346436,2.9756925077071794
13.080942869186401,2.973655816752412
13.08178424835205,2.9716924395194577
13.082624197006226,2.968836184601329
13.083474397659302,2.967676874122247
13.084317445755005,2.9663757045716888
13.085155963897705,2.9649416166474363
13.085996627807617,2.9637411789585566
13.086836814880371,2.9623517945232147
13.087688684463501,2.961120958461876
13.088529109954834,2.9601839733343094
13.089371919631958,2.95823311307825
13.090211153030396,2.9577544877236472
13.091062784194946,2.96640014247896
13.091904640197754,2.955363149090189
13.09274435043335,2.955120558157034
13.093612670898438,2.9525700751030532
13.094453811645508,2.9665753801554895
13.095303297042847,2.951157444853478
13.096145153045654,2.950287216936018
13.096985816955566,2.929877988085507
13.097822427749634,2.9298541462247547
13.09866189956665,2.945927136650936
13.099511623382568,2.940669410308529
13.100419044494629,2.936531059328444
13.101289510726929,2.936565630026535
13.102137088775635,2.93455754930467
13.103024244308472,2.9336420218517807
13.103869676589966,2.932258597881627
13.104709386825562,2.931681028804902
13.105549812316895,2.930183163903137
13.106387853622437,2.9309085525165264
13.107243061065674,2.9290941869132743
13.10808515548706,2.928772321793118
13.10892629623413,2.9281524334135574
13.109766483306885,2.927571884104238
13.110605001449585,2.9267916592111183
13.111454725265503,2.9275462541039294
13.112293243408203,2.9259887845502837
13.113131999969482,2.9247835784892535
13.113975286483765,2.923414459635551
13.114813327789307,2.9202947521561087
13.115668773651123,2.9200652742463675
13.116512537002563,2.910207856918318
13.117374420166016,2.9272887620078043
13.118213891983032,2.9168609281612548
13.11906623840332,2.915971626755193
13.119906902313232,2.9153487581430384
13.120746612548828,2.9149577516267002
13.12158489227295,2.9101691138945953
13.122422456741333,2.912624825552085
13.123274803161621,2.9102591169189354
13.124119520187378,2.910359252734095
13.124959945678711,2.8909054864532338
13.125829696655273,2.907774198982024
13.126672506332397,2.9087833057383663
13.12752890586853,2.906637538270657
13.128374338150024,2.9065922387352274
13.129219055175781,2.906009901286352
13.13006043434143,2.9045567398734975
13.130918025970459,2.9024747493833005
13.131767988204956,2.9014495493709505
13.132610559463501,2.900680649361688
13.13345193862915,2.8994146465557393
13.13429069519043,2.898100960028286
13.13513970375061,2.897787439559393
13.135980367660522,2.8964379902408113
13.136842489242554,2.8964719648923833
13.137691974639893,2.8958133334891003
13.138535976409912,2.894334542075937
13.139387130737305,2.893095361363335
13.140231370925903,2.892303215539839
13.141071081161499,2.8919998278617656
13.141911029815674,2.8908697236621053
13.14274787902832,2.8908256162197135
13.143595933914185,2.890864955289955
13.144438982009888,2.8904632199362776
13.145278453826904,2.8886333571235365
13.146121263504028,2.8859523398819373
13.14698576927185,2.885826574066469
13.147828340530396,2.8846040826563932
13.148666858673096,2.8837493519484223
13.149503946304321,2.8823665240247873
13.150343656539917,2.881618485643683
13.151195287704468,2.879711136783497
13.152037143707275,2.879486427245906
13.152881622314453,2.877620205595518
13.153720617294312,2.877197608613683
13.154560804367065,2.876730308142937
13.155410289764404,2.885856376392409
13.156251907348633,2.8740033953193898
13.157090425491333,2.8734228460100706
13.157927989959717,2.871144160168667
13.158765316009521,2.871935709945644
13.159617185592651,2.8857812745310394
13.160459041595459,2.8717354383153246
13.161330461502075,2.8664723475542484
13.162168502807617,2.851625424817255
13.163028001785278,2.851606351328653
13.163867473602295,2.867107733143298
13.164706230163574,2.866572483369408
13.165547132492065,2.8663352568549225
13.166385889053345,2.863216741468518
13.167233943939209,2.863040311698951
13.168073654174805,2.8619316651739677
13.168913841247559,2.8600183558485934
13.169752359390259,2.859290583049128
13.170592069625854,2.857814771868559
13.17144250869751,2.857001168370386
13.172285318374634,2.856074912080158
13.17312502861023,2.855587346027773
13.173963785171509,2.855053288346921
13.174800872802734,2.8541568343826333
13.17583680152893,2.8395399856019004
13.176850318908691,2.829874495252907
13.177759408950806,2.832310537375276
13.178624391555786,2.849359851999265
13.179494619369507,2.8332260648281653
13.180344820022583,2.83249352365655
13.181188344955444,2.832332591096472
13.182033777236938,2.8308138645665486
13.183270931243896,2.8234294442450336
13.184268951416016,2.82917771687242
13.185298204421997,2.8146365659995753
13.186225175857544,2.8181407234836486
13.187137365341187,2.8177252790600393
13.187997817993164,2.8191206239605693
13.18884539604187,2.8191945337289015
13.189696550369263,2.8195765995474575
13.190538883209229,2.8201201939726106
13.191396236419678,2.8203812623478486
13.192241430282593,2.820507624209836
13.193083763122559,2.8126845136504786
13.193924903869629,2.8200373435064963
13.194775342941284,2.8166625281170043
13.19576120376587,2.8116646780567978
13.196627616882324,2.811201549911684
13.19747519493103,2.8103450310641565
13.198318481445312,2.810107208503152
13.199180603027344,2.8089365731402127
13.200028419494629,2.8094157945413345
13.200873136520386,2.8087428580216
13.201716423034668,2.8085670242985517
13.202560901641846,2.809394932913176
13.203417539596558,2.80904803383923
13.204261541366577,2.8071597584676455
13.205103158950806,2.810275293621456
13.205942153930664,2.8091791640733677
13.20678162574768,2.8075227507975997
13.207637071609497,2.8073177107951297
13.208486080169678,2.8086665640671926
13.209328889846802,2.809389568494507
13.21017050743103,2.8106281531605903
13.211036920547485,2.809601165008684
13.211878299713135,2.8102115166439434
13.212717533111572,2.8103849661809166
13.213560342788696,2.809429503611267
13.214399814605713,2.810421325018564
13.215272665023804,2.809448577099869
13.216114521026611,2.8100493919908276
13.216954708099365,2.811419106891049
13.217791557312012,2.8101584685037695
13.2186279296875,2.8124925866714223
13.219511985778809,2.8125235810904003
13.22036099433899,2.815237380890534
13.221202850341797,2.8155872601970744
13.222043514251709,2.812761403651405
13.222882270812988,2.8146270292552744
13.223755121231079,2.812586165974875
13.22459864616394,2.816073038109903
13.22544002532959,2.812782861326082
13.226279973983765,2.8173801681256494
13.227134704589844,2.818152644414025
13.227980375289917,2.818494179069302
13.228820085525513,2.8190616153552073
13.22965931892395,2.8191045307045615
13.230498552322388,2.8193155311722196
13.231374979019165,2.816704251373321
13.232227563858032,2.8166178246280937
13.233075618743896,2.8168180962584133
13.233916997909546,2.8172305604494285
13.234790325164795,2.818677165350576
13.235644578933716,2.8196445488506017
13.236489295959473,2.8197816395499276
13.237332344055176,2.812524773183438
13.238193035125732,2.819214203264022
13.239053726196289,2.812674380859659
13.2399001121521,2.8200272107156765
13.240742921829224,2.8203657651383596
13.24158787727356,2.8125456348115963
13.242429494857788,2.8216991212009335
13.243285417556763,2.8272733482448276
13.244130611419678,2.82257113725795
13.24497675895691,2.82330129424349
13.245818853378296,2.8231814888932094
13.246659994125366,2.823754289597784
13.24751353263855,2.8234771279665383
13.24835991859436,2.8237286595974753
13.249203443527222,2.823934891692983
13.250044584274292,2.8242400675106127
13.250899076461792,2.8233245400577234
13.251758575439453,2.8125688806258298
13.252601623535156,2.8126946464412983
13.253442764282227,2.8249779731008973
13.254321575164795,2.8274819645264104
13.255171775817871,2.827278116616978
13.256014108657837,2.827153542894547
13.256852626800537,2.8286073003539207
13.257692098617554,2.829697469436821
13.258532047271729,2.8296271359476015
13.259385108947754,2.829208711291398
13.260234117507935,2.8300431764177296
13.261080503463745,2.8127161041159754
13.261920690536499,2.83064816363432
13.262759923934937,2.831160167593976
13.263610124588013,2.831425408294846
13.264451503753662,2.8306338585178685
13.265291929244995,2.831269244106918
13.266132116317749,2.8323176899335016
13.266995429992676,2.83171329876343
13.267839908599854,2.812736369697615
13.268679857254028,2.831080297360456
13.269519805908203,2.830734590379547
13.270358085632324,2.8308847941022868
13.271207332611084,2.8316560782976246
13.272047281265259,2.8320661583025646
13.272890329360962,2.833096126687065
13.273730516433716,2.8321192064427385
13.274569749832153,2.8338560859985455
13.275421142578125,2.8333536187831903
13.276265144348145,2.8343466322835247
13.277107000350952,2.833718399252701
13.27794623374939,2.8338221113469735
13.278822898864746,2.835013608338071
13.279679775238037,2.834672073682794
13.280524015426636,2.835140566246577
13.281363487243652,2.833879927859298
13.282201290130615,2.833767275067243
13.283095836639404,2.8331074515709225
13.283946990966797,2.849164944787615
13.284790277481079,2.8323492803989985
13.28563380241394,2.8332749406427076
13.286477088928223,2.8327533999387504
13.287331342697144,2.833898405301381
13.288174390792847,2.8343198101901783
13.289016723632812,2.833727935997002
13.289856433868408,2.834330539027517
13.290695190429688,2.8322402038860566
13.291547775268555,2.834597567867943
13.292391538619995,2.834778169963142
13.293233394622803,2.8353938860170707
13.294073820114136,2.832039336209218
13.294946908950806,2.8367522760334345
13.295794248580933,2.8360942406766703
13.29663634300232,2.836389879749999
13.297477722167969,2.8363547130053894
13.298357009887695,2.838285307679809
13.299211740493774,2.8367528720799533
13.300056457519531,2.8374949499958695
13.300898551940918,2.8376099869739995
13.30173921585083,2.8377566144176263
13.302579879760742,2.8379425809314944
13.30343246459961,2.8384402797746993
13.304279565811157,2.838592867683514
13.305122375488281,2.837372164412995
13.305962562561035,2.8366586967299816
13.306803703308105,2.835998873233661
13.307658672332764,2.838102917445054
13.308505773544312,2.837747673719844
13.309350967407227,2.838948111408724
13.310194253921509,2.8392169283887063
13.311045169830322,2.840066294678008
13.311890363693237,2.840267758401365
13.312774658203125,2.849351507348002
13.313621759414673,2.840710024918321
13.314464569091797,2.8408816863157376
13.315325498580933,2.8393784569953033
13.316171407699585,2.83205840969782
13.317016839981079,2.8467718180146
13.317856311798096,2.83803973651406
13.318726539611816,2.839376072809228
13.31957483291626,2.8391144083874713
13.320419311523438,2.8390953348988694
13.321257591247559,2.839419584205101
13.322094917297363,2.8392199086213004
13.322954654693604,2.838173846980792
13.32379674911499,2.8382191465162214
13.324634075164795,2.8375628992990136
13.325474977493286,2.8375819727876155
13.326316118240356,2.837440113716139
13.32716679573059,2.836838106732143
13.328008651733398,2.846889239178805
13.328851461410522,2.8467950638288335
13.329689264297485,2.8492066680439314
13.330527067184448,2.8349212211276558
13.331376791000366,2.8467545326655546
13.332218408584595,2.8330299655234774
13.333059787750244,2.8323343792360283
13.333902359008789,2.832090000163317
13.334740400314331,2.8317967452760633
13.335589408874512,2.831878999695659
13.33642840385437,2.830517629446701
13.337265014648438,2.829895356881065
13.338104486465454,2.829895356881065
13.33896517753601,2.8283438477926075
13.339811563491821,2.828453520352068
13.34065556526184,2.827076056847102
13.341495275497437,2.827172616383149
13.342343091964722,2.827197650336939
13.343220949172974,2.8127441183023594
13.344064235687256,2.8270474466141993
13.344903707504272,2.8264621289327296
13.345741748809814,2.8297427689722503
13.346580028533936,2.824797967052217
13.347426891326904,2.823375204011822
13.348265409469604,2.822707035864238
13.34910273551941,2.822210529114071
13.349940299987793,2.8218761470170195
13.350779056549072,2.8218081977138754
13.351629972457886,2.8218147542255823
13.352473974227905,2.8212693716608728
13.35331392288208,2.821088173519155
13.354152917861938,2.812804915047278
13.355014324188232,2.812769748302668
13.355855226516724,2.8208068395622776
13.356693744659424,2.8211149956125015
13.357534408569336,2.820740082352171
13.358374118804932,2.8214559342212597
13.359222173690796,2.8221086051593547
13.360064029693604,2.8220686700425945
13.360901832580566,2.8219512488783893
13.361738443374634,2.820889093981873
13.362573146820068,2.820883133516685
13.363421201705933,2.8125974908587326
13.364266157150269,2.819519379081652
13.365104913711548,2.8181031725529637
13.365945100784302,2.8186074279078754
13.366783857345581,2.8172615548684066
13.367656946182251,2.8170416137029664
13.368496894836426,2.817412950684184
13.36933708190918,2.812754251093179
13.370177030563354,2.817148306029833
13.371029376983643,2.8155520934524647
13.371870040893555,2.8144619243695645
13.372708797454834,2.8149250525146785
13.373548746109009,2.812506295741355
13.374387741088867,2.8158477325257936
13.375239372253418,2.8154215592648457
13.376083135604858,2.8154746074050196
13.376923561096191,2.8139034287814413
13.377762794494629,2.8131601587724875
13.378599405288696,2.812571860858424
13.3794527053833,2.807829714754786
13.380293846130371,2.8108880294427907
13.381131887435913,2.810331321994224
13.381972312927246,2.8093293677961073
13.382810354232788,2.8098562729187337
13.383661270141602,2.809516526403013
13.384501934051514,2.8101775419923714
13.385343313217163,2.8112033380512402
13.38618278503418,2.810296751296133
13.38703465461731,2.808991409419943
13.387873411178589,2.809517122449532
13.388715028762817,2.809616066171654
13.389552116394043,2.8096232187298797
13.390389919281006,2.807857132894651
13.391243696212769,2.8084370861574515
13.392115831375122,2.8103545678084574
13.392955780029297,2.808361388249563
13.39379596710205,2.8074649342852753
13.394635915756226,2.807385064051755
13.395530223846436,2.801971769567939
13.396407842636108,2.802768087717067
13.397257804870605,2.810300327575246
13.398099899291992,2.8030398849296434
13.398967504501343,2.802369332595984
13.399815559387207,2.8102800619936064
13.400660514831543,2.8032997612118438
13.401501655578613,2.80784759615035
13.40234112739563,2.810272313388862
13.403198719024658,2.8024152281779324
13.404043912887573,2.8027746442287738
13.40488576889038,2.804060912616362
13.405755043029785,2.8101113808287836
13.406598806381226,2.810169197341108
13.407458305358887,2.8077623614981606
13.408302783966064,2.8034970526095693
13.409141540527344,2.8030208114410415
13.409978866577148,2.8033724788871384
13.410818576812744,2.802124357476754
13.411741018295288,2.8027347091120136
13.412587404251099,2.803277707490648
13.413427829742432,2.802650070506343
13.414271831512451,2.810300327575246
13.415127515792847,2.800278997454524
13.415973901748657,2.80075106629742
13.41681432723999,2.801185584209631
13.417654275894165,2.8013083697925056
13.418493747711182,2.8009942532770937
13.419351577758789,2.801782226774958
13.420193910598755,2.802124953523273
13.421035528182983,2.801083660254915
13.421874761581421,2.80191633724169
13.422713041305542,2.8024778130624073
13.423562049865723,2.8023210528279607
13.424402713775635,2.810221649434763
13.425240755081177,2.802257871896967
13.42608380317688,2.801649308401264
13.426953792572021,2.7929732552734916
13.427801370620728,2.8028503421366624
13.42864203453064,2.803131080047021
13.42948317527771,2.8040179972670076
13.43032169342041,2.803727722612348
13.431171417236328,2.8025821212031987
13.43201231956482,2.8018746139853734
13.432854413986206,2.8031924728384583
13.43369722366333,2.80327174702546
13.43453598022461,2.810144163387318
13.43542218208313,2.805281019840362
13.436262607574463,2.8053549296086944
13.437103271484375,2.8053692347251458
13.437944889068604,2.804880476579723
13.438786268234253,2.810221649434763
13.439636945724487,2.8057983882186877
13.440481185913086,2.806142903106559
13.441321849822998,2.806064821012595
13.44216012954712,2.8064599998545647
13.443028211593628,2.80698750102371
13.44386911392212,2.8073683747492284
13.444708347320557,2.8074649342852753
13.44554877281189,2.806623912647237
13.446388006210327,2.8077003726602046
13.447240352630615,2.805604673100075
13.448081493377686,2.8054377800748087
13.448922157287598,2.8056863314731517
13.449758529663086,2.8052017456533607
13.450597524642944,2.8056612975193618
13.451448440551758,2.8102478754815907
13.452293157577515,2.806853390556978
13.453134298324585,2.8069672354420705
13.453973770141602,2.8071007498622835
13.454811334609985,2.8072694310271062
13.455662250518799,2.806845045905715
13.456505060195923,2.807002998233199
13.457346677780151,2.8074613580061625
13.458189487457275,2.8078499803364254
13.459036588668823,2.8073707589353036
13.45990777015686,2.8085026512745204
13.460745334625244,2.8090313445367032
13.461585283279419,2.808625436857395
13.462424516677856,2.810169197341108
13.463273763656616,2.807242012887241
13.46411395072937,2.8070643910246362
13.464957475662231,2.806539870088085
13.465798139572144,2.807080484280644
13.466637134552002,2.8061280019435886
13.467487573623657,2.807860113127245
13.46832799911499,2.8062835700849975
13.469167709350586,2.8075304994023442
13.470006227493286,2.8102454912955155
13.470848083496094,2.810219265248688
13.471711158752441,2.8063306577599834
13.472554445266724,2.806117869152769
13.47339415550232,2.8103450310641565
13.474234104156494,2.8056368596120906
13.475082159042358,2.8056243426351957
13.475924015045166,2.806673980554817
13.47676134109497,2.807295657073934
13.477602005004883,2.8069976338145297
13.478443145751953,2.806549406832386
13.479292631149292,2.81007323385158
13.480132102966309,2.805319166817566
13.48097038269043,2.8043166165729305
13.481811761856079,2.803945875638232
13.482651472091675,2.803190088652383
13.483500003814697,2.8025576832959276
13.484372854232788,2.8035989765642855
13.485211372375488,2.803345060747273
13.486051082611084,2.802515960039611
13.48689866065979,2.800819015600564
13.487748146057129,2.8011843921165935
13.488589763641357,2.800608015132906
13.489428281784058,2.8002003193140412
13.4902663230896,2.799874877914772
13.49111819267273,2.7997061967499492
13.491960525512695,2.799871897682178
13.492799520492554,2.7996066569813083
13.493637323379517,2.7994373797699668
13.494475603103638,2.799377775118086
13.495324611663818,2.8077635535911982
13.496164798736572,2.797699904167641
13.497001647949219,2.798147535103266
13.497840404510498,2.797261809976317
13.498706579208374,2.797105645788389
13.499561786651611,2.8101429712942805
13.500406503677368,2.7974924799790957
13.501246690750122,2.795759176702401
13.502084016799927,2.795706128562227
13.502944231033325,2.7936068527229847
13.50378942489624,2.7945110552920167
13.504647731781006,2.794090842496257
13.505487442016602,2.7932665101607452
13.506329536437988,2.807758189172529
13.507178544998169,2.7939924948206536
13.50801944732666,2.792723511782111
13.508862972259521,2.7929023257377534
13.509701251983643,2.7923587313126004
13.510538578033447,2.792288397823381
13.511388301849365,2.791194652461368
13.512229442596436,2.790927623620942
13.513070344924927,2.7909383524582805
13.51391053199768,2.77360472364482
13.514748811721802,2.7736243931799405
13.515599489212036,2.7897599684905967
13.516440868377686,2.7905753601283263
13.517279148101807,2.7892193542980377
13.518117427825928,2.788796161269684
13.518975257873535,2.786660526592794
13.519817113876343,2.7863887293802176
13.52065634727478,2.7865043624048664
13.52149510383606,2.7866259558947033
13.522332668304443,2.7858880503044188
13.523181438446045,2.78624746635526
13.524020910263062,2.7864078028688195
13.524860858917236,2.786493633567528
13.525701999664307,2.7854130012289287
13.52653980255127,2.7737245289951002
13.527389526367188,2.784308527029577
13.528231382369995,2.785976861235721
13.529070377349854,2.785185311458744
13.529907703399658,2.7854076368102594
13.530750036239624,2.7850345116894855
13.531597375869751,2.788114880098686
13.53243899345398,2.7860722286787305
13.533307313919067,2.785489295183336
13.534146070480347,2.786307071007141
13.535005807876587,2.7846244316845454
13.535848379135132,2.7905443657093483
13.536691665649414,2.784828279593978
13.537530660629272,2.7736017434122258
13.538368463516235,2.7848968249436408
13.53921890258789,2.785014842154365
13.540059804916382,2.7858236772803875
13.540899515151978,2.786456082636843
13.541738271713257,2.7883252845198254
13.542577266693115,2.787686322651663
13.543428182601929,2.7735278336438935
13.544270992279053,2.773638698296392
13.545113801956177,2.7881238207964683
13.545953035354614,2.787466381486223
13.546791553497314,2.7879986510275185
13.547640323638916,2.7890017973186727
13.548481225967407,2.788301442659073
13.549322843551636,2.7881041512613476
13.55016040802002,2.788065408237625
13.55101752281189,2.7834937314383663
13.55185842514038,2.7884516463818128
13.55269742012024,2.790097330820242
13.55354118347168,2.789892886864291
13.554378032684326,2.791138028042081
13.555228233337402,2.7907386768744797
13.556068897247314,2.791176175019285
13.556907653808594,2.7910778273436816
13.557769775390625,2.7919504394472168
13.558607339859009,2.7923491945682994
13.559456825256348,2.7929297438776186
13.560302019119263,2.793777322027364
13.561141967773438,2.7936950676077683
13.561981916427612,2.793112134112374
13.562819957733154,2.7911147822278477
13.563669443130493,2.791576718279924
13.564510583877563,2.791132663623412
13.565349102020264,2.7910974968788023
13.566187381744385,2.7913770426961233
13.567036628723145,2.792400454568917
13.567897319793701,2.7735069720157353
13.568750858306885,2.7894553887194857
13.569594383239746,2.789820765235515
13.570434331893921,2.7899787175629993
13.571289300918579,2.7893939959280485
13.572133541107178,2.78989825128296
13.572972297668457,2.790740465014036
13.57381010055542,2.7903321731486526
13.574647665023804,2.791238163857241
13.575498819351196,2.7921840896825896
13.576345682144165,2.791835402469087
13.577184438705444,2.7736142603891207
13.578039407730103,2.792957162017484
13.578879117965698,2.7914288987432596
13.579746007919312,2.7917871227010633
13.580589532852173,2.7923491945682994
13.58142900466919,2.7917674531659427
13.582274675369263,2.7915999640941576
13.583123445510864,2.7907738436190894
13.58396315574646,2.7912953843230466
13.584801197052002,2.773510548294848
13.585638999938965,2.7735504834116083
13.586479187011719,2.7911970366474432
13.587331771850586,2.7870950445050053
13.59203815460205,2.9110131157652277
13.592966794967651,2.890860782964323
13.594139575958252,2.8541627948478214
13.595141887664795,2.848711353386802
13.596051931381226,2.8494176685115895
13.596954584121704,2.8303847110730067
13.59780740737915,2.822617628886417
13.598652362823486,2.8149781006548524
13.599528074264526,2.8045657640177923
13.600441932678223,2.79552969879266
13.601314783096313,2.7736839978318213
13.60216498374939,2.784457538659279
13.603067636489868,2.7834990958570356
13.60391640663147,2.7839568595834803
13.604759693145752,2.784113619817927
13.605605363845825,2.7831104735267727
13.60644793510437,2.7883842931251874
13.60730504989624,2.781758043975597
13.608151197433472,2.781668040951257
13.608993291854858,2.7805570102401984
13.609835386276245,2.7799037432555846
13.610676288604736,2.7796301579034517
13.61156964302063,2.773557039923315
13.612411975860596,2.7800718283738886
13.61325216293335,2.780194613956763
13.61409044265747,2.779831621626809
13.614951848983765,2.7766326399603654
13.615801811218262,2.7772435876421437
13.616642951965332,2.776708933914773
13.617488145828247,2.77595016669633
13.618326663970947,2.775875660881479
13.619177103042603,2.775167557617135
13.620018005371094,2.7751067608722164
13.620856046676636,2.7749541729634015
13.621695280075073,2.7746865480764566
13.622533082962036,2.774306866443976
13.623384237289429,2.773283454571182
13.624231338500977,2.773426505735696
13.625073671340942,2.773445579224298
13.625918626785278,2.773656579691956
13.626758813858032,2.774039241557031
13.627610683441162,2.773648235040693
13.628453254699707,2.773681613645746
13.629292011260986,2.7734652487594187
13.630131244659424,2.7729586092184317
13.630993127822876,2.773401471781906
13.631842374801636,2.7721229519990627
13.632684469223022,2.772075268277558
13.633522510528564,2.7719119515314046
13.634360074996948,2.7718910899032463
13.63521122932434,2.7722534861866817
13.636070966720581,2.772916885962115
13.63690710067749,2.772827478984294
13.637747764587402,2.773115965499397
13.638586044311523,2.7724650827008586
13.639435768127441,2.772587868283733
13.64027738571167,2.7728322473564444
13.641116380691528,2.768722506609262
13.641956806182861,2.7723697152578493
13.642795085906982,2.773877712950434
13.643644094467163,2.7738544671362004
13.644484996795654,2.774045202022219
13.645324945449829,2.7735492913185706
13.646165370941162,2.773243519454422
13.647027492523193,2.7726957527036373
13.647867918014526,2.772472831305603
13.648709058761597,2.772258850605351
13.649545431137085,2.7723697152578493
13.65038251876831,2.772451969677445
13.651231527328491,2.771827312925734
13.652073621749878,2.7725717750277252
13.652911901473999,2.772665354331178
13.6537504196167,2.7712807382679867
13.65459418296814,2.77323457875664
13.655443668365479,2.7733573643395144
13.656286716461182,2.768837543587392
13.65712833404541,2.773725721088138
13.657966613769531,2.774200770163628
13.658804178237915,2.7746585338900727
13.659655809402466,2.77533504668892
13.660533428192139,2.7771225901988257
13.661374807357788,2.77783069346317
13.662212610244751,2.779026362779899
13.663063526153564,2.777099940431111
13.663904905319214,2.777161929269067
13.664745092391968,2.7778628799751854
13.665583848953247,2.7772853108984603
13.66642713546753,2.777712676252446
13.667276859283447,2.7736124722495643
13.66812014579773,2.779846522789779
13.668960332870483,2.7820977904913176
13.6697998046875,2.7812007404805112
13.670640707015991,2.7807405925679913
13.671492099761963,2.781387899087417
13.672333240509033,2.781966064210661
13.673176288604736,2.782652113753809
13.674018859863281,2.783286307249821
13.67485761642456,2.78180155537147
13.675908327102661,2.771016093613636
13.676931142807007,2.7633747772425146
13.677838802337646,2.768137784974311
13.678697109222412,2.7698609554601856
13.679566144943237,2.7688262187035346
13.680421352386475,2.771273585709761
13.681265592575073,2.7735957829470377
13.682331562042236,2.7661452014619354
13.683305263519287,2.768560381956146
13.684313774108887,2.7639773802730296
13.685237407684326,2.76781830404023
13.686102151870728,2.7712002719879476
13.686997652053833,2.772099706184829
13.687854051589966,2.774275275978479
13.688703060150146,2.773576113411917
13.689581632614136,2.780539128844634
13.690428018569946,2.7734962431783967
13.691287755966187,2.7736732689944827
13.692132949829102,2.7878657326538243
13.692981481552124,2.790809606410218
13.69382381439209,2.791456316883125
13.694679498672485,2.7931568376012845
13.69554853439331,2.794638013200523
13.696390867233276,2.7967492099701414
13.697232246398926,2.798283433709554
13.69807767868042,2.7981385944054837
13.698944568634033,2.8005883455977854
13.699792623519897,2.801472282585178
13.700634002685547,2.8031829360941574
13.701474905014038,2.8034213547016806
13.702314138412476,2.810274697574937
13.703169822692871,2.8053418165852806
13.704013109207153,2.8101930392018604
13.704861164093018,2.8081164131303327
13.705702066421509,2.8100589287351285
13.706541538238525,2.8110531343285006
13.707392692565918,2.8126821294644033
13.708234548568726,2.814817764141293
13.70907473564148,2.8162238378791615
13.70991325378418,2.8127280250463516
13.710750102996826,2.8157046813612796
13.711601734161377,2.8166559716052975
13.71244215965271,2.8182009241820483
13.713281393051147,2.812540866439446
13.71412181854248,2.8204718614187074
13.714998483657837,2.821824887016402
13.715842723846436,2.822635510281981
13.716688632965088,2.82313618935778
13.717530250549316,2.812521196904325
13.718372106552124,2.826205828929642
13.719260454177856,2.8277984652278976
13.720100164413452,2.8273269924315203
13.720972537994385,2.82728705731476
13.721834421157837,2.8281227145341292
13.722678661346436,2.8300878799066402
13.723538160324097,2.8329208890105355
13.724382638931274,2.8321746387689877
13.725223302841187,2.8338680069289217
13.726065158843994,2.8350308936871165
13.726919174194336,2.832027415278842
13.727794647216797,2.8348562520571057
13.72864055633545,2.8360346360247894
13.729483127593994,2.8493747531622353
13.730326652526855,2.8389552639669495
13.731197834014893,2.8424576333114664
13.73204779624939,2.8431216291334187
13.73288869857788,2.8449306303180015
13.733728170394897,2.8465274389418886
13.734571695327759,2.8473446187191747
13.735424518585205,2.8485015450121813
13.736268997192383,2.850591284107123
13.737109899520874,2.8527895036684874
13.737950325012207,2.8548339432279994
13.738824605941772,2.8573981353519122
13.739678621292114,2.8517136397020386
13.740524768829346,2.8626212909962288
13.74136471748352,2.863676889381038
13.742201566696167,2.8648189145110745
13.74305272102356,2.868832691768729
13.743897676467896,2.851848942261808
13.744738340377808,2.8701565110870018
13.745579481124878,2.8724202957654352
13.746419668197632,2.8734764901967633
13.747271060943604,2.875519141616719
13.748114109039307,2.8779605481577573
13.748960733413696,2.885817037322168
13.749799966812134,2.888333545724576
13.750638008117676,2.8834715942706577
13.75148892402649,2.8842708926523795
13.752331972122192,2.8866968019839288
13.753173828125,2.8883877859577876
13.754013299942017,2.889675842484932
13.75485610961914,2.8910020459892807
13.755730867385864,2.893362390203761
13.756576299667358,2.8953555697626556
13.757418155670166,2.8973749753683777
13.758257865905762,2.8991285442267114
13.75913381576538,2.8938296906745067
13.759976387023926,2.888358579678366
13.760816812515259,2.8836063007839083
13.761657238006592,2.878753290027772
13.76249647140503,2.8737238495020687
13.763349771499634,2.8686908326972524
13.764191627502441,2.864283068690666
13.765032768249512,2.8597757649154385
13.765871286392212,2.855835301379597
13.766708612442017,2.8513542236511973
13.767558097839355,2.848141532914821
13.768399953842163,2.844506841243129
13.769240856170654,2.841858606560064
13.77008056640625,2.8494170724650707
13.770947933197021,2.8370574518510643
13.771793127059937,2.834745983451126
13.772632837295532,2.8330108920348755
13.773473739624023,2.8315636910872093
13.774317264556885,2.812586762021394
13.77516794204712,2.828954199427867
13.776009559631348,2.828073838719587
13.776849746704102,2.827611306620992
13.777688026428223,2.8127006069064864
13.77852988243103,2.8253475219425583
13.77937912940979,2.825907209623719
13.780219793319702,2.8250763207765006
13.781057596206665,2.8254798442697338
13.78189468383789,2.8125080838809113
13.782809257507324,2.827350238245754
13.783665895462036,2.8266558440513423
13.784512996673584,2.826986649869281
13.785353660583496,2.8277495894133553
13.78619384765625,2.828780749890894
13.787045955657959,2.829696873390302
13.787891149520874,2.8301242387442875
13.788731575012207,2.8275838884811266
13.789688348770142,2.820189931415311
13.790568351745605,2.8218046214347625
13.79143500328064,2.8228667763312787
13.792285919189453,2.812804319000759
13.793132781982422,2.8127906099308264
13.79397439956665,2.8274444135957255
13.794816732406616,2.830514649214107
13.795725584030151,2.825470307525433
13.796592712402344,2.8283694777929163
13.797481298446655,2.8324702778423165
13.798325061798096,2.846868377550647
13.799184560775757,2.8350833457807716
13.800030946731567,2.8368422790577745
13.800873041152954,2.838972549315995
13.801714420318604,2.8416893293487226
13.802555561065674,2.84318600215745
13.803410768508911,2.8453997189283036
13.804253101348877,2.848679762921305
13.805097103118896,2.846973877784476
13.805935382843018,2.8539798085665473
13.80677342414856,2.855755431146077
13.807625532150269,2.856960637207107
13.808466911315918,2.8518256964475746
13.809309720993042,2.8620103433144504
13.810154914855957,2.864929779163573
13.811032056808472,2.8682861171109817
13.811877012252808,2.8693840347986264
13.81272029876709,2.87015233876137
13.813560247421265,2.8723720159974118
13.814400672912598,2.87578378627107
13.815252304077148,2.8769401165175577
13.816093921661377,2.8796622609689546
13.816937685012817,2.8826919654240566
13.817777156829834,2.884688721262064
13.818616151809692,2.888013468743976
13.81946611404419,2.8909305204070237
13.82030963897705,2.8934452406698754
13.821149826049805,2.8956541890685785
13.82201361656189,2.899008142829912
13.822851419448853,2.890879260406406
13.823724031448364,2.900636541919296
13.824568271636963,2.9028127077594648
13.825409412384033,2.9046538954560632
13.82625126838684,2.9058424122145667
13.827115535736084,2.9069278129253164
13.827960968017578,2.9093263041170006
13.828806638717651,2.910595287155543
13.82964539527893,2.911602605772329
13.830483198165894,2.912667740901439
13.831334590911865,2.9113677634439186
13.832180738449097,2.9250816017486576
13.833019256591797,2.9123816385724113
13.833859920501709,2.9135022060277707
13.834696769714355,2.9138967888232217
13.835549354553223,2.914734234182147
13.836392164230347,2.915061463720973
13.8372323513031,2.9102209699417316
13.838072538375854,2.915862550242251
13.838929891586304,2.915383924887648
13.839779138565063,2.916310181177876
13.840619564056396,2.9168609281612548
13.841468572616577,2.917061795838093
13.8423330783844,2.917102327001372
13.843183994293213,2.9257128150120755
13.8440260887146,2.9336455981308935
13.844869375228882,2.9403642344908993
13.845710277557373,2.92970155831594
13.846549272537231,2.953594679068885
13.847401142120361,2.958596701454723
13.848243474960327,2.964414115478291
13.849083423614502,2.9688242636709528
13.849922180175781,2.974928972116586
13.85076093673706,2.9796258186847946
13.851614713668823,2.9841629247859625
13.852455139160156,2.9885730729786246
13.853294372558594,2.9930171958228584
13.854132175445557,2.9966739412157466
13.854995012283325,3.00046300893581
13.85583758354187,3.003738284556661
13.85667872428894,3.0068508394778775
13.85751724243164,3.010154725331631
13.85835337638855,3.01321602025223
13.859203577041626,3.016806008435012
13.860044956207275,3.01899767148467
13.860886335372925,3.0202845359187767
13.861726760864258,3.0220530059400805
13.862566232681274,3.0234692124687688
13.863415241241455,3.026733759252281
13.864426612854004,3.012066842563968
13.86542558670044,3.0175409337927026
13.866297245025635,3.018474938687675
13.867166757583618,3.0080536613528324
13.868016719818115,3.02189326547304
13.868861436843872,3.022919061531909
13.869707345962524,3.008098364841743
13.87054991722107,3.0243024855020626
13.871426105499268,3.0203650021988158
13.872281074523926,3.0218414094259036
13.87312936782837,3.0225036171082995
13.87397313117981,3.0227825668791017
13.874816656112671,3.007828355768723
13.875673770904541,3.022169235011248
13.876570224761963,3.0232862261874947
13.877415180206299,3.02294349943918
13.878255844116211,3.0220035340790194
13.879121780395508,3.0198941254489573
13.879972696304321,3.020162346382421
13.880814552307129,3.017726304260052
13.881651401519775,3.0172244330912155
13.882489681243896,3.0080059776313277
13.883345127105713,3.0155268926056493
13.884190082550049,3.013514639558153
13.885029077529907,3.007887364374085
13.885869264602661,3.0111787332509437
13.886709928512573,3.0086807022906186
13.887562274932861,3.0062386997030615
13.888405084609985,3.004935145966428
13.889244794845581,3.0042937999121904
13.890085697174072,3.0021963122125044
13.890953302383423,3.0001393556760974
13.891798496246338,3.005606294346606
13.89263653755188,2.9975233075050483
13.893475532531738,2.9957971567865798
13.894315481185913,2.9947004311919727
13.895169496536255,2.9913196553372927
13.896010875701904,2.989131568566748
13.896849393844604,2.968783732507674
13.8976891040802,2.9847989064215312
13.898529529571533,2.983773110362662
13.899380683898926,2.9820809342957655
13.90026593208313,2.9688218794848775
13.901108503341675,2.978396770763012
13.901949167251587,2.975765821428993
13.902788639068604,2.9727456537181918
13.903639316558838,2.970240470199641
13.904480218887329,2.969109173906943
13.905320405960083,2.9665098150384206
13.90615963935852,2.9644778924558035
13.90703272819519,2.962435241035848
13.90787959098816,2.9599932384482908
13.908720970153809,2.9585651109892264
13.909563541412354,2.9560605235171944
13.910404443740845,2.9492751299470816
13.911259651184082,2.950430268100532
13.912104606628418,2.929903022039297
13.912945985794067,2.945601099205148
13.913785457611084,2.9420069386967347
13.91462755203247,2.939334266106399
13.915478229522705,2.9373035356168193
13.916320085525513,2.929924479713974
13.917159795761108,2.9333326737085192
13.917999267578125,2.9298487818060854
13.918840885162354,2.92659079153428
13.919691801071167,2.9253557831473094
13.920533657073975,2.923373928472272
13.921373844146729,2.9248711973275183
13.922213554382324,2.9197696351730387
13.92307186126709,2.917929043522959
13.923916101455688,2.916149248617798
13.924776077270508,2.914520849528414
13.925612688064575,2.9124519720616306
13.926454782485962,2.912326802292681
13.927314519882202,2.9038540010278227
13.928158044815063,2.902143943565362
13.928996324539185,2.9008934379689024
13.929839372634888,2.8984663365443155
13.930681228637695,2.896882640943842
13.931532859802246,2.8949794644092877
13.932373046875,2.8932837120632784
13.933210849761963,2.891836511115612
13.934049606323242,2.885978565928765
13.934898376464844,2.885598884296284
13.935751914978027,2.885244236617593
13.936594724655151,2.8857782942984453
13.93743348121643,2.882528648677903
13.938274383544922,2.880922303309715
13.939125299453735,2.8795996760844798
13.939966678619385,2.8784385774658414
13.940804719924927,2.8782269809516645
13.94164252281189,2.8764006944180363
13.942484140396118,2.888473020609977
13.94333267211914,2.8725257959992643
13.944187879562378,2.870849117141857
13.945071935653687,2.87029240969329
13.94591212272644,2.8693053566581437
13.946752309799194,2.8691044889813053
13.94760274887085,2.8677371582671594
13.948450088500977,2.8666499694168532
13.949291229248047,2.8648379879996764
13.950130701065063,2.866404994297623
13.950995445251465,2.861793382381604
13.9518404006958,2.8616580798218347
13.95268177986145,2.860193593525123
13.953526735305786,2.859783513520183
13.954369068145752,2.857551319307246
13.955219984054565,2.858355982107637
13.956060647964478,2.8575054237252977
13.956900119781494,2.851837021331432
13.95773696899414,2.8557321853318434
13.958574533462524,2.8547630136922613
13.959424018859863,2.853798014378311
13.960268259048462,2.8526309552944844
13.961107015609741,2.8515735687701187
13.9619460105896,2.846892815457918
13.962786436080933,2.8495696603738856
13.963638305664062,2.8488395033883456
13.964481115341187,2.8478137073294767
13.965320348739624,2.8464934642903166
13.96616268157959,2.845075469622072
13.967028141021729,2.8425506165684005
13.967869997024536,2.8418395330714623
13.968751192092896,2.8413007070184597
13.969621658325195,2.841797213768627
13.970465421676636,2.8492597161841053
13.971315860748291,2.838836054663188
13.972159385681152,2.8467294987117646
13.97300124168396,2.846849900108564
13.973840951919556,2.8361121220722345
13.97467827796936,2.8345242541461295
13.975536346435547,2.8333184520385806
13.976378202438354,2.8469226177838585
13.977219581604004,2.831421235969214
13.978060483932495,2.82994304060257
13.978920698165894,2.82792721127596
13.979767084121704,2.8271487745223967
13.980607509613037,2.8247753172845025
13.981446981430054,2.8238580016920567
13.982286214828491,2.8227278974923964
13.983136892318726,2.820053436762504
13.983979225158691,2.819363214893724
13.984819650650024,2.8127751127213374
13.985664367675781,2.8161189336918513
13.986506700515747,2.815208770657631
13.987360000610352,2.8153750676363787
13.988205909729004,2.816315032996539
13.989044427871704,2.8128001466751273
13.9898841381073,2.8154757994980573
13.990722179412842,2.8146085518131914
13.991575002670288,2.8127500787675475
13.99241828918457,2.8129110113276257
13.993283033370972,2.8134742752878994
13.994125843048096,2.812835909466256
13.99499225616455,2.8131106869114264
13.995882987976074,2.807506657541592
13.996753454208374,2.8112838043312793
13.997598648071289,2.8086200724387256
13.99844241142273,2.8113368524714533
13.999301195144653,2.806788421486428
14.000145435333252,2.807391024516943
14.00098991394043,2.807730174986145
14.001832008361816,2.809193469189819
14.002673625946045,2.808364368482157
14.003525972366333,2.8078249463826355
14.004370212554932,2.8089908133734243
14.005212545394897,2.8101495278059874
14.00605583190918,2.807901240337043
14.006911754608154,2.8097448122197166
14.007765054702759,2.81071338781278
14.008605241775513,2.810421325018564
14.009443759918213,2.8107956422323754
14.010283470153809,2.8100988638518887
14.01113247871399,2.809613681985579
14.011972904205322,2.8094563257046135
14.01285171508789,2.8100809824563244
14.013695001602173,2.8114226831701616
14.014532804489136,2.81045827990273
14.015383243560791,2.808218337085049
14.016223669052124,2.8085264931352727
14.017067909240723,2.8089675675591907
14.017907619476318,2.8074184426568083
14.018744945526123,2.807680107078565
14.019598722457886,2.808065749176234
14.020441770553589,2.808308340109389
14.021281242370605,2.809448577099869
14.022120952606201,2.809626198962474
14.022985696792603,2.8087500105798258
14.023830652236938,2.80977819082477
14.02467155456543,2.810343838971119
14.025511026382446,2.810194827341417
14.026352882385254,2.8096774589630913
14.027204036712646,2.810287810598351
14.02804946899414,2.810669280370388
14.028893947601318,2.810837365488692
14.029734373092651,2.8112337364236994
14.03057599067688,2.8113422168901225
14.031425952911377,2.8098479282674704
14.03226923942566,2.811276055726535
14.033126592636108,2.8103641045527583
14.033966302871704,2.8104076159486313
14.034809350967407,2.8102800619936064
14.035666942596436,2.8106066954859132
14.03651213645935,2.8107360375804946
14.037353515625,2.8095922243109017
14.03819465637207,2.811172343632262
14.039048671722412,2.8093317519821825
14.039896488189697,2.8107950461858566
14.0407395362854,2.811473943170779
14.041582345962524,2.811807133174793
14.042422533035278,2.811552621311262
14.04327392578125,2.8119913115491046
14.044115781784058,2.810094095479738
14.04495358467102,2.8120109810842253
14.045792579650879,2.811822630384282
14.046630382537842,2.8101900589692663
14.047479629516602,2.8098413717557635
14.048322439193726,2.8093907605875446
14.049163818359375,2.807696200334573
14.050004720687866,2.8086200724387256
14.050841808319092,2.8070226677683197
14.05171513557434,2.8075138100998176
14.052557468414307,2.807547188704871
14.053400754928589,2.8073093661438664
14.054237842559814,2.806244231014756
14.055086612701416,2.810147739666431
14.055927038192749,2.806539870088085
14.056775569915771,2.80683252892882
14.05764126777649,2.8043595319222847
14.058490991592407,2.8043941026203756
14.059345483779907,2.810064293153798
14.060187578201294,2.8037599091243637
14.061030149459839,2.803936338893931
14.061900615692139,2.804706430996231
14.062743425369263,2.803708649123746
14.063598871231079,2.8101769459458525
14.06444001197815,2.8078595170807263
14.065280675888062,2.8043660884339916
14.06612253189087,2.803885674939832
14.06698989868164,2.8035149340051335
14.067832708358765,2.8023240330605548
14.068671941757202,2.8028503421366624
14.069509267807007,2.803196049117571
14.070351123809814,2.8039554123825328
14.071205377578735,2.803087568651148
14.072046995162964,2.803541160051961
14.072889804840088,2.8044602637839633
14.073729753494263,2.8045466905291905
14.074565887451172,2.8045770889016497
14.07541537284851,2.8045407300640024
14.076256275177002,2.810336686412893
14.077096939086914,2.805459237749486
14.077935934066772,2.806456423575452
14.078774452209473,2.8068545826500158
14.07962417602539,2.808115817083814
14.080467462539673,2.808218337085049
14.081346988677979,2.809914089431058
14.082188844680786,2.8104660285074745
14.08303952217102,2.809513546170419
14.083884239196777,2.8102603924584857
14.08472490310669,2.8101799261784466
14.085566282272339,2.811434604100538
14.086407899856567,2.8113368524714533
14.087260246276855,2.811650968986865
14.0881028175354,2.813241817145564
14.088944673538208,2.813667990406512
14.08978533744812,2.815237380890534
14.090625524520874,2.814150192040228
14.091477155685425,2.8129551187700175
14.092320680618286,2.813721038546686
14.09316110610962,2.8139344232004193
14.094000816345215,2.814171053668386
14.09484314918518,2.8143123166933437
14.095712423324585,2.8127780929539314
14.096556186676025,2.8140262143643158
14.09739637374878,2.8143218534376446
14.098235845565796,2.813139297144329
14.099087953567505,2.812195159458537
14.099931478500366,2.807894087778817
14.100883483886719,2.807770110102905
14.101750612258911,2.8088775645348507
14.102602243423462,2.8089675675591907
14.103458881378174,2.809862233383922
14.10430383682251,2.8103450310641565
14.105145692825317,2.8105679524621907
14.105985403060913,2.8101775419923714
14.106829404830933,2.8086611996485233
14.107686519622803,2.8082594642948466
14.108533382415771,2.8089931975594995
14.109375953674316,2.8097567331500928
14.110215902328491,2.80990812896587
14.111067533493042,2.8101924431553416
14.11190915107727,2.810169793387627
14.112746715545654,2.810265160830636
14.113585472106934,2.8103533757154198
14.114423513412476,2.8105625880435214
14.115273714065552,2.807733751265258
14.116118431091309,2.807519174518487
14.116960048675537,2.806997037768011
14.117798328399658,2.806831932882301
14.118637084960938,2.8067925938120597
14.119486808776855,2.807198501491368
14.120327472686768,2.8084120522036615
14.121166229248047,2.808031178478143
14.122002601623535,2.808370328947345
14.122841835021973,2.807823158243079
14.1237051486969,2.808858491046249
14.124547004699707,2.808876372441813
14.12540578842163,2.809594012450458
14.126245021820068,2.8103176129242913
14.127098560333252,2.8107759726972548
14.12794017791748,2.8109440578155587
14.128780364990234,2.8115973248001724
14.129619598388672,2.81195852899057
14.130463123321533,2.8125515952767843
14.131316184997559,2.8077319631257014
14.132158994674683,2.810812331534902
14.1329984664917,2.81145844596129
14.133836507797241,2.8116938843362194
14.134674310684204,2.8118864073617944
14.13552474975586,2.8130606190038465
14.13636827468872,2.813664414127399
14.137210130691528,2.814183570645281
14.13805079460144,2.81401906180609
14.138903617858887,2.8131792322610893
14.139756679534912,2.814677693209373
14.140596628189087,2.8145644443707996
14.141437768936157,2.8149739283292208
14.142279863357544,2.8128019348146838
14.143131256103516,2.817278840217452
14.143976926803589,2.8177050134784
14.144821643829346,2.8187469027932766
14.145685195922852,2.8180703899944293
14.146522760391235,2.817515470685419
14.147374153137207,2.8165248413711597
14.148216962814331,2.816458680207572
14.149055480957031,2.815572955080623
14.149893045425415,2.815927602759314
14.150731801986694,2.816620208814169
14.151587724685669,2.8165343781154606
14.152433633804321,2.816191055320627
14.153274297714233,2.8127220645811635
14.154113531112671,2.815796472525176
14.155006885528564,2.8145453708821977
14.15585732460022,2.8127006069064864
14.15669870376587,2.8150865811212755
14.15753984451294,2.814746834605555
14.158379793167114,2.814131714598145
14.159234762191772,2.814482785997723
14.160077810287476,2.8131607548190063
14.16091799736023,2.813261486680685
14.161758422851562,2.8122744336455385
14.162597179412842,2.8078988561509677
14.16344952583313,2.8107086194406294
14.164288997650146,2.810128666177829
14.16513180732727,2.8086731205788995
14.165970087051392,2.808218337085049
14.166805505752563,2.8069368370696113
14.167657852172852,2.8067121275320206
14.168522357940674,2.8035739426104955
14.169409990310669,2.8101393950151676
14.17024850845337,2.8039601807546832
14.171103715896606,2.8032198909783235
14.171947717666626,2.8103259575755546
14.1727876663208,2.803255653769452
14.17362666130066,2.8076997766136857
14.174470901489258,2.8002271414073876
14.175333499908447,2.7984622476651966
14.176354169845581,2.7736249892264593
14.177248239517212,2.786919210781957
14.178242683410645,2.7788445685916625
14.179208755493164,2.785110805643893
14.180071830749512,2.7855751258820445
14.18092155456543,2.786011431933812
14.181766033172607,2.785670493325054
14.182606935501099,2.7853331309954084
14.183682680130005,2.779373857900364
14.184694528579712,2.7852085572729774
14.185726642608643,2.7702907050002463
14.186661958694458,2.7757403583217095
14.187541961669922,2.7776208850885493
14.188399076461792,2.7737143962042805
14.189246892929077,2.7788237069635042
14.190091133117676,2.7803859448893005
14.190972805023193,2.7799502348840517
14.191831111907959,2.7810159660596807
14.192678689956665,2.7735802857375487
14.193522691726685,2.7827313879408107
14.19436526298523,2.7824214437510304
14.195218086242676,2.7840558033056024
14.196074485778809,2.781677577695558
14.196963787078857,2.7799102997672915
14.197818517684937,2.7809146381514833
14.198662519454956,2.7811435200147057
14.199559450149536,2.7812770344349187
14.200405836105347,2.782581184218071
14.201247215270996,2.7735647885280597
14.202147245407104,2.7742579906294336
14.203065156936646,2.776338789026593
14.203919172286987,2.776282164607306
14.204763650894165,2.776941988103627
14.205607175827026,2.7780488464890536
14.206446647644043,2.773502203643585
14.207302808761597,2.777816984393237
14.208146333694458,2.7792951797598815
14.20899224281311,2.779439423017433
14.209831714630127,2.7809146381514833
14.210671663284302,2.78221163537641
14.211527109146118,2.7821258046777015
14.212372541427612,2.783193920039406
14.213213682174683,2.783050868874892
14.214056015014648,2.783376310274161
14.214909076690674,2.7821162679334006
14.215765953063965,2.7838012914420713
14.216611623764038,2.7836296300446546
14.217453479766846,2.782745693057262
14.218327283859253,2.783012721897688
14.219179153442383,2.783078883061276
14.220022201538086,2.784118984236596
14.220861196517944,2.7838662605126214
14.221699953079224,2.7735182968995926
14.222538948059082,2.7857676489076195
14.223390340805054,2.7735129324809233
14.224235773086548,2.7859321577468106
14.225077152252197,2.787151668924292
14.22591495513916,2.788391445683413
14.226755619049072,2.7888539777820083
14.227609157562256,2.7887633787111494
14.2284574508667,2.7735147206204798
14.229298114776611,2.790783976409909
14.230137348175049,2.7887657628972247
14.231022357940674,2.7851870995983004
14.231878280639648,2.7850345116894855
14.232719659805298,2.785850499373734
14.233561992645264,2.7853921396007704
14.234401941299438,2.7848950368040843
14.235254764556885,2.7861026270511897
14.236098527908325,2.786865566595264
14.236942052841187,2.787170742412894
14.237779140472412,2.7888414608051133
14.238623142242432,2.7881852135879055
14.239475965499878,2.788534496847927
14.24031949043274,2.788923715224709
14.24115777015686,2.788969610806657
14.241997957229614,2.789007161737342
14.242844581604004,2.7890298115050567
14.243720531463623,2.7905467498954235
14.244560718536377,2.7910748471110876
14.245399475097656,2.773647638994174
14.246237516403198,2.7902987945435993
14.24709177017212,2.789681290350114
14.247932195663452,2.7883401856827956
14.248770475387573,2.78865311010517
14.249644756317139,2.7894595610451174
14.250495910644531,2.773501011550547
14.251348733901978,2.789115642203765
14.252192258834839,2.789780830118755
14.253032922744751,2.7892485605774593
14.253872394561768,2.789112065924652
14.25471305847168,2.788951133364574
14.255564212799072,2.7893159138340846
14.256407976150513,2.7734467713173356
14.25724744796753,2.7899065959342235
14.258087396621704,2.773510548294848
14.258953094482422,2.7890870319708623
14.25980019569397,2.7735808817840675
14.260641098022461,2.789694403373528
14.261478662490845,2.789504264534028
14.26236081123352,2.773616048528677
14.263210535049438,2.7898851382595464
14.264053583145142,2.773585650156218
14.264894485473633,2.790181373379394
14.265736818313599,2.7898511636079744
14.266575574874878,2.7906301964080567
14.267425775527954,2.7897456633741453
14.268265962600708,2.790222500589192
14.269103765487671,2.790818547108
14.269942283630371,2.791616653396684
14.27078104019165,2.791458105022681
14.27163052558899,2.7921626320079125
14.272476434707642,2.7914163817663646
14.273317337036133,2.7924010506154358
14.274155378341675,2.7925417175938745
14.275024652481079,2.810225225713876
14.27586817741394,2.7940240852861504
14.276708602905273,2.7946111911071765
14.277549266815186,2.7956298346078197
14.278388738632202,2.796113228334573
14.279239177703857,2.7954188341401616
14.280081033706665,2.795790171121379
14.280922889709473,2.7956578487942036
14.281763792037964,2.795132135764615
14.282602787017822,2.794736360876126
14.283457279205322,2.7950117343678156
14.284302473068237,2.795247172742745
14.285143613815308,2.795653080422053
14.285982131958008,2.794927095762145
14.286853313446045,2.793820237376718
14.2877197265625,2.79464933808438
14.288562774658203,2.793590759466977
14.289401292800903,2.7944025748255936
14.290242671966553,2.807798124289289
14.291091918945312,2.8102198612952067
14.291932344436646,2.8101185333870093
14.2927725315094,2.7940544836586096
14.293612003326416,2.7935102931869378
14.294452905654907,2.793727254119784
14.295303583145142,2.792241310148395
14.296145915985107,2.792806958294744
14.296990394592285,2.792729472247299
14.297830820083618,2.791244124322429
14.298669338226318,2.7901956784958455
14.299523115158081,2.7901330936113706
14.30036473274231,2.7897611605836343
14.301205396652222,2.789218162205
14.302046298980713,2.7884677396378206
14.302900791168213,2.7850196105265153
14.303753852844238,2.785353396577048
14.304596900939941,2.7857616884424314
14.305437326431274,2.7841833572606274
14.306275606155396,2.7852759105296028
14.30712366104126,2.773538562481232
14.307964324951172,2.783184383295105
14.308802843093872,2.782338593284916
14.309643268585205,2.7814391590880345
14.310483455657959,2.7829680184087775
14.311539649963379,2.7682951412552765
14.312633991241455,2.7383426115921274
14.31375503540039,2.7197715902056205
14.314785957336426,2.7319559731430973
14.315677881240845,2.7264592321466483
14.316532850265503,2.7284220133330837
14.317379713058472,2.729395953344816
14.318226099014282,2.731161443133526
14.319098949432373,2.730353800100541
14.319948434829712,2.7294472133454337
14.320793867111206,2.7303490317283905
14.321637868881226,2.7321365752382962
14.322481393814087,2.7337613980485673
14.323343276977539,2.733395425486019
14.32419753074646,2.734574405500222
14.32504415512085,2.735901801097608
14.325884342193604,2.736491887151228
14.326749086380005,2.7358684224925547
14.327608346939087,2.7343872468933164
14.328452110290527,2.7385321543851084
14.32929515838623,2.739257542998498
14.330134391784668,2.734482018289807
14.33100438117981,2.7396855043990023
14.33185076713562,2.7397278237018377
14.3326895236969,2.741031377438471
14.333527326583862,2.740453212315227
14.334366798400879,2.740469305571235
14.335222721099854,2.7416363646550614
14.33607029914856,2.7409938265077862
14.336913585662842,2.741181581161211
14.337754249572754,2.7420810153580923
14.338593244552612,2.74267229350475
14.339449644088745,2.7426901749003143
14.340293407440186,2.743530600491834
14.341134548187256,2.7434918574681113
14.341973781585693,2.7436831884006487
14.342817306518555,2.7344891708480326
14.343710660934448,2.7449336939971083
14.344558477401733,2.7440479688701593
14.345398426055908,2.74482282934461
14.346240758895874,2.749921411266495
14.347271919250488,2.74191710256542
14.348166704177856,2.743293373977348
14.349021673202515,2.7442840032916074
14.349873065948486,2.744431226781753
14.350723266601562,2.742737858621819
14.351592540740967,2.7429202488565743
14.352442502975464,2.744589179109237
14.35328459739685,2.7490881382332013
14.35412883758545,2.746277182850502
14.355018615722656,2.7463218863394125
14.355872392654419,2.748216122176185
14.35671591758728,2.7488848863702877
14.357558727264404,2.749570935913436
14.358399152755737,2.750595539879267
14.359251022338867,2.752186984084485
14.360095262527466,2.754962176676056
14.36093807220459,2.755887240873246
14.361780166625977,2.7571067520507277
14.36262059211731,2.7584937522999944
14.363475799560547,2.771092983614562
14.364320039749146,2.7601960611577105
14.365188360214233,2.7620110228074815
14.366027593612671,2.76336702863777
14.36686658859253,2.7627101853740434
14.367732048034668,2.7641454653913335
14.368576288223267,2.7655032593611786
14.369420528411865,2.767010064960726
14.370261192321777,2.7679625472977816
14.371118783950806,2.7693036519651
14.37196397781372,2.7716139282720005
14.372803926467896,2.7733287541066116
14.373643636703491,2.775608632041053
14.37448239326477,2.7767226429847054
14.375335216522217,2.7772131892696845
14.376183271408081,2.779038879756794
14.377024412155151,2.780285213027622
14.377864360809326,2.7817193009518744
14.378704309463501,2.783271406086851
14.379557132720947,2.783805463767703
14.380401134490967,2.7849480849442583
14.381242036819458,2.786806557989902
14.382084608078003,2.7875635370687886
14.382947444915771,2.7883687959156984
14.383797645568848,2.7903387296603595
14.384681940078735,2.792611455036575
14.385522603988647,2.8103539717619386
14.386362075805664,2.794924115529551
14.387261152267456,2.800278997454524
14.388118505477905,2.801714873518333
14.388965606689453,2.803442216329839
14.389808416366577,2.8045562272734914
14.390648365020752,2.8051564461179312
14.391505241394043,2.8059634931043975
14.392348289489746,2.8079215059186824
14.393189430236816,2.809296585237573
14.394034147262573,2.810812331534902
14.394877195358276,2.8103432429246
14.395741701126099,2.812055088526617
14.39661955833435,2.8083804617381647
14.397499322891235,2.809876538500373
14.398348093032837,2.8101769459458525
14.399213075637817,2.8109631313041605
14.400059700012207,2.8123423829486827
14.40090537071228,2.8135547415679385
14.401750802993774,2.814727761116953
14.40259051322937,2.8156778592679332
14.40344524383545,2.816523649278122
14.404324054718018,2.8192255281478795
14.405164241790771,2.8194341444294624
14.40600323677063,2.8203943753712624
14.406844139099121,2.8220621135308877
14.407719135284424,2.823095658194501
14.408565044403076,2.8250524789157483
14.409406423568726,2.8260615856720905
14.410245418548584,2.8267416747500507
14.411098957061768,2.827231624988511
14.411942958831787,2.8276065382488413
14.412782907485962,2.828948835009198
14.41362190246582,2.8271499666154343
14.414462804794312,2.8312966622467832
14.415316343307495,2.8128001466751273
14.41616153717041,2.8324738541214294
14.417001247406006,2.8326097527277176
14.417839050292969,2.8468844708066547
14.418677568435669,2.8337070743688435
14.419533491134644,2.833052615291192
14.420377969741821,2.832994202732349
14.421218395233154,2.832154969233867
14.422057628631592,2.8338221113469735
14.422916412353516,2.833832840184312
14.423772096633911,2.8354999822974185
14.424643278121948,2.8369823499896945
14.425482511520386,2.8369144006865503
14.42632269859314,2.8379825160482546
14.427180528640747,2.8367218776609753
14.428026676177979,2.8379634425596527
14.42886734008789,2.8378203913951388
14.429709911346436,2.8378454253489287
14.430548429489136,2.8373089834820013
14.431400537490845,2.837882380233095
14.432241678237915,2.837505678833208
14.433080434799194,2.838289480005441
14.433919191360474,2.8385362432642274
14.434756755828857,2.837515215577509
14.435612916946411,2.8376630351141734
14.436460494995117,2.8378203913951388
14.437330722808838,2.8386691616379216
14.43817663192749,2.839252095133316
14.439042091369629,2.84926746478885
14.43988561630249,2.8401461649115283
14.440725326538086,2.8414544870203122
14.44156527519226,2.8405890274750027
14.44240403175354,2.8411081839928847
14.443257570266724,2.846774798247194
14.444101810455322,2.83227358249111
14.444941997528076,2.839684228859452
14.445786714553833,2.839348654669363
14.44662594795227,2.8389648007112505
14.447474479675293,2.8386602209401395
14.448355197906494,2.849424821069815
14.449193000793457,2.8382006690741384
14.450030326843262,2.836210469747838
14.450868129730225,2.833751777857754
14.451727151870728,2.8337726394859124
14.452570676803589,2.833538393204021
14.453409194946289,2.8326198855185374
14.454248666763306,2.833084205756689
14.455101013183594,2.833099702966178
14.455940008163452,2.8324702778423165
14.456780672073364,2.8326324024954324
14.457619428634644,2.8418943693511927
14.458460807800293,2.83315871157154
14.459313154220581,2.8328428069165716
14.4601571559906,2.8469375189468287
14.461000204086304,2.832825521567526
14.461839437484741,2.8327849904042472
14.462676763534546,2.831890324579516
14.46352767944336,2.846840363364263
14.464366674423218,2.8315219678308927
14.465206861495972,2.8126189485334097
14.466045141220093,2.81251881271825
14.46689772605896,2.8271392377780957
14.467750549316406,2.828224638488846
14.468587636947632,2.828261593373012
14.469428300857544,2.8272918256869106
14.470266103744507,2.8276685270867974
14.471113920211792,2.8125885501609504
14.471956253051758,2.8285149131435054
14.472827434539795,2.8286144529121464
14.47366976737976,2.829915026416186
14.474507331848145,2.830038408045579
14.475354433059692,2.8283694777929163
14.47619366645813,2.8292850052458056
14.477030992507935,2.829504350364727
14.477869033813477,2.8125009313226856
14.478709936141968,2.8285983596561386
14.479562759399414,2.812621332719485
14.480403423309326,2.828500608027054
14.481241226196289,2.8277048859244447
14.482078790664673,2.826985457776243
14.482939958572388,2.8254554063624626
14.483787536621094,2.8257945568316645
14.484627962112427,2.8250459224040414
14.485463619232178,2.8254178554317777
14.486301898956299,2.824867108448399
14.487152099609375,2.8240755586714217
14.487994909286499,2.824034431461624
14.48883318901062,2.8244927912345874
14.48967456817627,2.8241780786726567
14.490514516830444,2.812664844115358
14.491365194320679,2.8242746382087036
14.492207288742065,2.825165131707803
14.493046760559082,2.824272850069147
14.493885040283203,2.824783065889247
14.494723796844482,2.8249422103097688
14.495573282241821,2.8247252493769226
14.496413707733154,2.82484147844809
14.497286796569824,2.8127405420232465
14.498125791549683,2.8235450772696824
14.498985290527344,2.8220990684150538
14.499826908111572,2.812636829928974
14.500665664672852,2.8204098725807514
14.50150442123413,2.821116187705539
14.502347230911255,2.8192314886130676
14.503194332122803,2.8196081900129544
14.504033088684082,2.818683721862283
14.504871129989624,2.8186169646521764
14.505708694458008,2.818817236282496
14.506545066833496,2.8211489702640735
14.507394313812256,2.8170779725406137
14.50823426246643,2.8125360980672953
14.509071588516235,2.8178218385960863
14.50990915298462,2.8176996490597306
14.510745286941528,2.8125200048112875
14.511596202850342,2.8126606717897262
14.512437582015991,2.8127196803950882
14.513275861740112,2.81856510860504
14.514119148254395,2.8189859174473186
14.514979600906372,2.8180197260403306
14.515822410583496,2.8186884902344334
14.51665997505188,2.821078636774854
14.517497777938843,2.8191164516349376
14.518336057662964,2.820078470716294
14.519187450408936,2.820439078860173
14.520028352737427,2.8210965181704184
14.520868062973022,2.8219005849242906
14.521738052368164,2.8223112609757495
14.522576332092285,2.8228727367964668
14.52342677116394,2.8224638488845644
14.524267196655273,2.8228667763312787
14.52510690689087,2.8238121061101085
14.525946617126465,2.8259584696243367
14.526787519454956,2.8257754833430626
14.527639389038086,2.8271392377780957
14.52848219871521,2.827902773368689
14.529346942901611,2.8292104994309546
14.530189990997314,2.8273770603391
14.53104305267334,2.829675415715625
14.53188443183899,2.8294185196660186
14.532724618911743,2.8125533834163408
14.533565044403076,2.831616739227383
14.534409046173096,2.8322223224904923
14.535261869430542,2.8346982997296215
14.53610372543335,2.8353885215984014
14.536944389343262,2.8362295432364397
14.537786960601807,2.8366092248689205
14.538628339767456,2.849313956417317
14.539479732513428,2.8396514463009175
14.540322303771973,2.839926223746088
14.541163444519043,2.8418294002806426
14.542001724243164,2.8423539212171938
14.542840719223022,2.8492191850208264
14.543689489364624,2.8445896917092433
14.544530630111694,2.846076231727151
14.54537057876587,2.849406939674251
14.546231031417847,2.8478512582601616
14.547082424163818,2.8475836333732167
14.547924280166626,2.849002820134499
14.548763990402222,2.849139314787306
14.549604892730713,2.851721388306783
14.550443649291992,2.8528663936694136
14.551293134689331,2.8528944078557976
14.552135944366455,2.851644498305857
14.552973747253418,2.8560081548700516
14.553810596466064,2.8574750253528385
14.554647445678711,2.8585723469939643
14.555495977401733,2.8599527907315245
14.556334972381592,2.861004216790702
14.557173013687134,2.861418469121274
14.558011054992676,2.8627005651832302
14.558848857879639,2.8639123277559673
14.559719562530518,2.8659061033613806
14.560563325881958,2.8676286778007363
14.561406135559082,2.8663143952267642
14.562245607376099,2.870721563186832
14.563094139099121,2.851640922026744
14.563939571380615,2.8714964236612825
14.56477975845337,2.885785446856671
14.565617561340332,2.874288901601899
14.566457271575928,2.8755638451056296
14.5673086643219,2.877433643035131
14.568151473999023,2.8785935495607315
14.568991422653198,2.8808394528436008
14.569828748703003,2.881516561688967
14.57069730758667,2.883084760079951
14.571548223495483,2.884776340100329
14.572391510009766,2.886963234777836
14.573234558105469,2.8883538113062155
14.574073076248169,2.8894314634122207
14.57493281364441,2.891629086927067
14.575779676437378,2.8942779176566504
14.576623439788818,2.895285832319955
14.57746171951294,2.897174703738058
14.578299760818481,2.89826904514659
14.579149007797241,2.898178446075731
14.579991817474365,2.8993764995785356
14.580829858779907,2.890829788545345
14.581668615341187,2.900154936332099
14.582509994506836,2.9018190982126115
14.583359956741333,2.9025719049658663
14.584200382232666,2.905477631745056
14.585043668746948,2.890677796683049
14.585882186889648,2.9062030203584457
14.586720705032349,2.890625344589394
14.587573528289795,2.9072478899059164
14.58841872215271,2.9090694080673942
14.589256763458252,2.8907421697070803
14.590093851089478,2.912578929970137
14.590957641601562,2.9273942622416333
14.591800212860107,2.9144445555740064
14.592645168304443,2.917746057241685
14.593561172485352,2.9085907827127913
14.594538927078247,2.889061318524041
14.595440864562988,2.8910586704085675
14.596297264099121,2.89413307835258
14.597186803817749,2.8913787473891674
14.598050594329834,2.890706406915952
14.599056005477905,2.884369240327983
14.59998345375061,2.8855142456906133
14.600905895233154,2.8857312066234595
14.601786136627197,2.8857747180193325
14.602637767791748,2.892768727871028
14.603498697280884,2.895721542325204
14.604344844818115,2.899465906556357
14.605185747146606,2.9053494817435124
14.606027841567993,2.9046443587117623
14.606867790222168,2.904663432200364
14.607732057571411,2.908153880614505
14.608580827713013,2.9108897341358344
14.609424829483032,2.9129031792763684
14.61026644706726,2.9156497616350365
14.61111831665039,2.917310943282955
14.611962080001831,2.927492013870718
14.612807750701904,2.9221681263647232
14.613647937774658,2.924247136622326
14.614484786987305,2.9248050361639306
14.615334749221802,2.925857058269627
14.616176128387451,2.925012460352476
14.617013692855835,2.9291394864487037
14.61785078048706,2.9299387848304255
14.618689775466919,2.9318276562485286
14.61959171295166,2.9337916295280015
14.620434999465942,2.9299793159937044
14.621276617050171,2.9366973563071914
14.622115135192871,2.938211314464964
14.623018026351929,2.9393914865722044
14.623866558074951,2.929878584132026
14.624709606170654,2.941732757298083
14.625548362731934,2.943115585221718
14.626391172409058,2.945803755021543
14.627254486083984,2.9436240129022613
14.628099203109741,2.9442105226767685
14.6289381980896,2.9444471531447354
14.6297767162323,2.929840437154822
14.630614519119263,2.9464725192156456
14.631465911865234,2.946483844099503
14.632307767868042,2.9479638276057036
14.633151292800903,2.9499003827453114
14.633995056152344,2.9494348704141222
14.634834051132202,2.950255626470521
14.635687589645386,2.9511932076446064
14.636533260345459,2.952856177432081
14.637373208999634,2.953579181859396
14.638212442398071,2.954619283034716
14.639065504074097,2.953920120468154
14.639945268630981,2.955064529784266
14.640786409378052,2.9562101311934152
14.64162802696228,2.9561970181700015
14.642468214035034,2.9574493119060175
14.643324375152588,2.9663113315476575
14.644168376922607,2.9577932307473698
14.645010709762573,2.9580930421463303
14.645848989486694,2.958212251450092
14.646684408187866,2.9574493119060175
14.6475350856781,2.956375236079125
14.648377418518066,2.9567722030606514
14.649216413497925,2.956537360732241
14.650054931640625,2.955580110023035
14.650901794433594,2.954613322569528
14.651752710342407,2.955210561181374
14.652594089508057,2.9541686718664972
14.653432369232178,2.954688424430898
14.65427041053772,2.954566830941061
14.655124187469482,2.953762764187189
14.655967712402344,2.963882441983514
14.65680980682373,2.9541644995408656
14.657649755477905,2.954405898380983
14.658488750457764,2.9549065774567818
14.659339189529419,2.953187579296539
14.660186052322388,2.9542276804718592
14.661024332046509,2.953949326747576
14.661861896514893,2.9534218255784306
14.662697792053223,2.9494587122748746
14.663559436798096,2.949417585065077
14.664420127868652,2.9519042911415445
14.66525912284851,2.950563782520745
14.666097164154053,2.948608749939054
14.666956663131714,2.9478362736506787
14.667803764343262,2.9470453199202202
14.668643712997437,2.9464820559599465
14.669482469558716,2.9459903175819298
14.670320510864258,2.9447940522186817
14.671172618865967,2.945787065719016
14.672011852264404,2.9444531136099235
14.672853469848633,2.945087903152454
14.673692226409912,2.9434553317374386
14.674530267715454,2.9297152673858724
14.675380229949951,2.9408476282176528
14.676414489746094,2.9275176438710266
14.6773099899292,2.926410189439081
14.678349494934082,2.9180399081754573
14.679267883300781,2.9213861133320465
14.680132865905762,2.921005239606528
14.680984020233154,2.9220393803166607
14.681830167770386,2.920740594952177
14.682671785354614,2.920532574717113
14.683906316757202,2.9137954609150243
14.68491816520691,2.927435389451431
14.685955047607422,2.904011953355307
14.686915397644043,2.89073740133493
14.687797784805298,2.906049836403112
14.688650369644165,2.9069898017632725
14.689498662948608,2.9079244027047637
14.690344095230103,2.9086307178295514
14.691214799880981,2.906751383155749
14.69206428527832,2.9063502438485913
14.692944765090942,2.907569158979554
14.693791389465332,2.9076615461899693
14.694633483886719,2.9069522508325876
14.695490598678589,2.906494487106143
14.696339845657349,2.9063466675694785
14.697181940078735,2.9060575850078565
14.698022365570068,2.9042986517308536
14.69886040687561,2.9032710675324283
14.699735164642334,2.903877246842056
14.70057988166809,2.9033604745102495
14.701422214508057,2.9029754284590994
14.70226263999939,2.9024282577548335
14.703115940093994,2.901205170298239
14.703958511352539,2.900584089825641
14.704801797866821,2.90052448517376
14.705646276473999,2.9008493305265106
14.706487894058228,2.9014310719288674
14.707347869873047,2.901090133320109
14.70819354057312,2.900776612851216
14.70903468132019,2.9001287102852715
14.709874391555786,2.9005203128481285
14.710713386535645,2.899456369812056
14.711568117141724,2.898256528169695
14.712411165237427,2.898393022822502
14.71325159072876,2.8979692337476295
14.714091777801514,2.896507131636993
14.714958667755127,2.8908381331966084
14.715802907943726,2.8949186676643692
14.716688871383667,2.8908321727314203
14.717539072036743,2.893371330901543
14.718382120132446,2.8933510653199037
14.719236135482788,2.891006814361431
14.72007942199707,2.8857437236003545
14.720946073532104,2.8882638082818755
14.721795797348022,2.879996643066006
14.722639322280884,2.886021481278119
14.723494291305542,2.87985955236668
14.724337816238403,2.877722129550234
14.725178956985474,2.8765777202341223
14.726018190383911,2.8713408555198736
14.726857662200928,2.888209568048664
14.727747440338135,2.871246680169902
14.728596687316895,2.87079249272257
14.729440689086914,2.8700057113177433
14.730281591415405,2.8694060885198223
14.73113489151001,2.866467579182098
14.731975555419922,2.866955145234483
14.732814311981201,2.8665069182523393
14.733653783798218,2.865488274751696
14.734493017196655,2.8649905759084913
14.73534369468689,2.8686604343247932
14.73618483543396,2.8630140856521233
14.737066984176636,2.8631815747239084
14.73790693283081,2.862763150067705
14.73874568939209,2.861318929352633
14.739594221115112,2.8619388177321934
14.740434885025024,2.8620449140125412
14.741275072097778,2.8617266251714977
14.742113590240479,2.851696950399512
14.742976903915405,2.8516421141197816
14.743823051452637,2.8590318988599654
14.744666337966919,2.8583231995491025
14.745507955551147,2.8588727544394437
14.746347427368164,2.8515872778400513
14.747196912765503,2.8577086755882113
14.748037815093994,2.8570655413944173
14.748876333236694,2.8556636399821804
14.749712944030762,2.8555635041670206
14.750550508499146,2.854779106948269
14.751405239105225,2.853542310421742
14.752247333526611,2.852654201108718
14.753087997436523,2.8523949208730364
14.753925561904907,2.8524592938970676
14.754764318466187,2.8521994176148673
14.755637645721436,2.8528950039023164
14.756484270095825,2.85316322483578
14.757350206375122,2.851799470400747
14.758187770843506,2.851858479006109
14.75903868675232,2.851588469933089
14.759878158569336,2.850252133637921
14.760715961456299,2.8499761640997128
14.761558294296265,2.8491542159502763
14.762394428253174,2.8486290989672063
14.763242959976196,2.8467646654563743
14.764089345932007,2.8482059059388525
14.764930725097656,2.8464880998716473
14.765769958496094,2.8462395484733043
14.766607522964478,2.8446701579892824
14.767457246780396,2.843609195185804
14.768297672271729,2.846778374526307
14.76915955543518,2.840118746771663
14.770008087158203,2.8399894046770817
14.770849704742432,2.8393558072275886
14.771728515625,2.8402319956102366
14.772573471069336,2.8407481718955245
14.77341628074646,2.8411934186450742
14.774255752563477,2.832225898769605
14.775115251541138,2.8403762388677882
14.775959014892578,2.8404257107288493
14.776804208755493,2.839858274442944
14.777643203735352,2.840261797936177
14.778480529785156,2.8398850965362903
14.779332160949707,2.8408232737568944
14.780173778533936,2.840299348866862
14.781051635742188,2.841203551435894
14.781891584396362,2.8415289928351632
14.782729148864746,2.840641479568658
14.783577680587769,2.8401759672374687
14.784420251846313,2.840212922121635
14.785257816314697,2.840566973753807
14.78609585762024,2.839603166532894
14.786962509155273,2.832291463886674
14.787808179855347,2.8412232209710147
14.788649559020996,2.8412518312039174
14.789491653442383,2.8419855644685703
14.790330171585083,2.8440443091445338
14.791192054748535,2.840147357004566
14.792039394378662,2.841604094696533
14.792882442474365,2.842579822847822
14.793722152709961,2.8469619568541
14.794567584991455,2.843235474018511
14.795416831970215,2.8435013107658995
14.79625940322876,2.843170504947961
14.797101497650146,2.842412929822556
14.797988176345825,2.8382781551215834
14.798846006393433,2.835998873233661
14.799720048904419,2.8370479151067634
14.800610780715942,2.8321341076057087
14.801453351974487,2.8396609830452184
14.802295207977295,2.8392264651330072
14.803148031234741,2.840361337704818
14.80399203300476,2.8399596023511413
14.80483365058899,2.8468361910386313
14.805673360824585,2.8412643481808124
14.806514978408813,2.8419539740030735
14.807371377944946,2.84080539236133
14.80821442604065,2.84928236595182
14.809053182601929,2.841467600043726
14.809921979904175,2.8468200977826235
14.810764074325562,2.8418729116765156
14.81161642074585,2.8492662726958122
14.812459945678711,2.842132787958716
14.813302040100098,2.8417519142331975
14.81414246559143,2.8413787891124236
14.815006971359253,2.8398135709540333
14.815847873687744,2.839414219786432
14.816689729690552,2.8384462402398873
14.81752896308899,2.8322467603977635
14.818367004394531,2.8382876918658844
14.819232940673828,2.8381625220969346
14.820081233978271,2.8387538002435924
14.820924758911133,2.846731286851321
14.821765184402466,2.83801470256027
14.822603940963745,2.837928275815043
14.823457956314087,2.8369722171988747
14.824303388595581,2.837515215577509
14.82515811920166,2.8379515216292766
14.825997829437256,2.8366652532416885
14.826838254928589,2.835967878814683
14.82769513130188,2.8356615109040155
14.828540086746216,2.8493580638597087
14.829381465911865,2.849344950836295
14.830219030380249,2.8323176899335016
14.831073999404907,2.83390376972005
14.831918001174927,2.8346482318220416
14.83276081085205,2.8341147701877083
14.833600759506226,2.8349498313605586
14.83443808555603,2.8340217869307742
14.835286140441895,2.8350738090364707
14.836132049560547,2.8467116173162004
14.836973190307617,2.8347447913580885
14.837810516357422,2.8347471755441638
14.838648557662964,2.8359410567213366
14.839499950408936,2.849418860604627
14.840339422225952,2.846977454063589
14.84117841720581,2.832101921093693
14.84201693534851,2.835874895557749
14.842855215072632,2.8361085457931217
14.84373140335083,2.8469530161563177
14.844573736190796,2.837751249998957
14.845448970794678,2.8375170037170654
14.846286296844482,2.8380349681419097
14.847135543823242,2.836527566495844
14.847979307174683,2.837139110224141
14.848817825317383,2.837576608368946
14.849658250808716,2.836818437197022
14.850497245788574,2.837658266742023
14.851347208023071,2.8320983448145802
14.852190256118774,2.8469589766215058
14.853030920028687,2.8384855793101287
14.853871822357178,2.8396609830452184
14.854711532592773,2.839693169557234
14.855562448501587,2.840271334680478
14.85640573501587,2.8405580330560247
14.857243299484253,2.841368060275085
14.858081579208374,2.8417829086521755
14.85894250869751,2.8425947240107923
14.859788656234741,2.8427830747107357
14.860629796981812,2.8436282686744057
14.861469268798828,2.84674678406081
14.862308025360107,2.844686847291809
14.86315655708313,2.843182425878337
14.863998174667358,2.843017917039146
14.864838361740112,2.8426382354066653
14.865678548812866,2.842701416337659
14.866518497467041,2.842616777731988
14.867368459701538,2.8429451993638515
14.868211030960083,2.842619757964582
14.869054794311523,2.842464785869692
14.869920253753662,2.8491256057173735
14.870758295059204,2.84111056817896
14.871608257293701,2.846967321272769
14.87244987487793,2.841047983294485
14.873289585113525,2.8418234398154545
14.874129295349121,2.849195939206593
14.874995708465576,2.8414354135317104
14.875842094421387,2.8411391784118627
14.87668228149414,2.841261963994737
14.877521753311157,2.8407428074768553
14.8783597946167,2.841346602600408
14.879207134246826,2.840382795379495
14.88004732131958,2.8400561618871882
14.880886316299438,2.8393099116456404
14.881723165512085,2.838673930010072
14.882566452026367,2.839041094665658
14.883415460586548,2.8388843344312114
14.884255647659302,2.8389832781533335
14.885093450546265,2.838976125595108
14.88593053817749,2.8386781023357037
14.886768817901611,2.8384182260535034
14.887617349624634,2.846960764761062
14.888461351394653,2.8381607339573782
14.889301061630249,2.838451008612038
14.89013957977295,2.8388217495467365
14.891006231307983,2.837505678833208
14.891847610473633,2.8378525779071544
14.892688512802124,2.8382507369817183
14.893537044525146,2.8385165737291067
14.894396543502808,2.8398040342097324
14.895250082015991,2.849390846418243
14.896092891693115,2.836685518823328
14.896932363510132,2.8360751671880684
14.897771120071411,2.8356746239274293
14.898608922958374,2.8346017401935746
14.899458169937134,2.8468999680161438
14.900299549102783,2.8343168299575843
14.901137828826904,2.833742241113453
14.901975870132446,2.8493735610691977
14.902843952178955,2.8325108090055955
14.903716564178467,2.8326419392397333
14.904560804367065,2.8332475225028424
14.905399560928345,2.8339746992557884
14.906238555908203,2.834840158801098
14.907089710235596,2.8345522683325135
14.907935380935669,2.8350314897336353
14.908774614334106,2.8493920385112808
14.909614324569702,2.836126427188686
14.910452127456665,2.8369662567336866
14.911304235458374,2.8350738090364707
14.912145376205444,2.8358474774178837
14.912989616394043,2.836356501144946
14.91383147239685,2.8365198178910993
14.914672374725342,2.836284975562689
14.915523290634155,2.8358826441624934
14.916364669799805,2.849276405486632
14.917204141616821,2.8362736506788315
14.918073415756226,2.8372005030155782
14.918926000595093,2.8364882274256025
14.919777154922485,2.837396602320266
14.920618295669556,2.832039336209218
14.92145824432373,2.8377965495343864
14.922296047210693,2.837732176510355
14.923145532608032,2.839826683977447
14.923986911773682,2.849191766880961
14.924826622009277,2.8392258690864884
14.925666332244873,2.8320482769070003
14.926507949829102,2.8396538304869927
14.927361011505127,2.8371927544108337
14.928203344345093,2.836243848352891
14.929041624069214,2.8359684748612017
14.929879426956177,2.8355381292746222
14.930720090866089,2.8358856243950874
14.931569814682007,2.8362390799807407
14.93241000175476,2.8366092248689205
14.933248519897461,2.8466961201067114
14.934087991714478,2.835302690899693
14.934946775436401,2.8469816263892205
14.935789823532104,2.8334001104116573
14.936628341674805,2.8343490164696
14.937466621398926,2.83427391460823
14.938304662704468,2.849400979209063
14.939153671264648,2.834090332280437
14.939997434616089,2.834724525776449
14.940836668014526,2.8469726856914384
14.94167423248291,2.834310869492396
14.942548036575317,2.849369388743566
14.943397760391235,2.8324702778423165
14.94424033164978,2.8323272266778026
14.945080757141113,2.831573823878029
14.94592022895813,2.83075306782163
14.946763038635254,2.8307435310773292
14.94762372970581,2.829128245011359
14.948467254638672,2.8287318740763516
14.949307203292847,2.828161457557852
14.950146198272705,2.8279105219734335
14.951036214828491,2.827334741036265
14.951991319656372,2.807078100094569
14.95292043685913,2.8070268400939513
14.953776359558105,2.8103021157148023
14.954624652862549,2.8102168810626127
14.955491304397583,2.807602024984601
14.956337451934814,2.8113767875882134
14.957220315933228,2.8077218303348817
14.958062171936035,2.811127044096833
14.958914518356323,2.810430861762865
14.959763288497925,2.8101620447828823
14.96060562133789,2.8076997766136857
14.961446285247803,2.8100929033867006
14.962286233901978,2.811411954332823
14.96314287185669,2.8092572461673315
14.963986873626709,2.809273935469858
14.964830875396729,2.8089908133734243
14.965670347213745,2.8087231884864794
14.966516494750977,2.8089872370943114
14.967370986938477,2.8083804617381647
14.968214750289917,2.8084406624365643
14.969057559967041,2.8087541829054574
14.969899415969849,2.8087351094168556
14.97074270248413,2.807677126845971
14.971591234207153,2.809032536629741
