time,ecg_signal
0.006095409393310547,2.5021836164216538
0.008658409118652344,2.502773106428755
0.011140584945678711,2.5001266598852467
0.013577699661254883,2.5046762829633096
0.016021013259887695,2.5054839259962947
0.018467426300048828,2.5002852082592497
0.02120041847229004,2.5071528562489576
0.023943424224853516,2.5094923388352797
0.026455163955688477,2.5099781167481083
0.02890610694885254,2.511340679090104
0.03135848045349121,2.512067259796531
0.033800363540649414,2.513266505392373
0.03624534606933594,2.51505345285576
0.03868532180786133,2.516232432869963
0.04110860824584961,2.517179550788349
0.04355216026306152,2.5184777401063134
0.04600214958190918,2.520194354080481
0.04842042922973633,2.521247568279215
0.05085134506225586,2.5214388992117525
0.053340911865234375,2.522841992717027
0.05583310127258301,2.524566951342458
0.05828571319580078,2.525219026234034
0.06071662902832031,2.5343349616926862
0.06315279006958008,2.5342991989015577
0.06557178497314453,2.5258168608923985
0.06834959983825684,2.5294497644245344
0.07090044021606445,2.5297382509396376
0.07334065437316895,2.5299337541978066
0.07583975791931152,2.53164738793938
0.0782771110534668,2.5320789256189973
0.0807335376739502,2.5329229274896297
0.08316898345947266,2.533867065175422
0.08562803268432617,2.536840741257756
0.08805584907531738,2.5337222258713514
0.09078836441040039,2.5354769868227227
0.09326577186584473,2.534460131461636
0.09571599960327148,2.534257475645241
0.09816360473632812,2.538595502209127
0.10071611404418945,2.5378045484786687
0.10319185256958008,2.5372955247516065
0.10562825202941895,2.536737029163483
0.1080772876739502,2.5373420163800735
0.11051440238952637,2.5378647491770683
0.11293268203735352,2.537499372661039
0.11536788940429688,2.536635105208767
0.11781120300292969,2.5361707849706154
0.12032580375671387,2.5365814610220743
0.12280559539794922,2.5373950645202474
0.1252427101135254,2.5368663712580646
0.12767672538757324,2.534280125412956
0.1301107406616211,2.535469834264497
0.13252973556518555,2.5361636324123897
0.13495945930480957,2.5354650658923465
0.13737845420837402,2.534475628671125
0.13980960845947266,2.5345554989046453
0.14223837852478027,2.534855310303606
0.14465570449829102,2.5333520809831716
0.14708375930786133,2.5336077849397403
0.14950180053710938,2.533587519358101
0.1519327163696289,2.532806698418462
0.15436744689941406,2.5322404542255943
0.15678715705871582,2.5321963467832025
0.1592118740081787,2.5344428461125905
0.16162538528442383,2.5306704676950535
0.16405630111694336,2.53072232374219
0.1664867401123047,2.5277617606832696
0.16948938369750977,2.524880471811351
0.1722118854522705,2.5343504589021753
0.17470049858093262,2.5266179474136767
0.17713713645935059,2.5260928304306067
0.17958807945251465,2.525682154379148
0.1820218563079834,2.5251928001872064
0.18444585800170898,2.524109187616013
0.18688726425170898,2.5241109757555695
0.18931221961975098,2.52407580901096
0.19173789024353027,2.5196215533759063
0.19418716430664062,2.522484960852261
0.19663786888122559,2.5234088329564135
0.19907593727111816,2.53425807169176
0.20150279998779297,2.534208599830699
0.20393705368041992,2.5216785099123133
0.20636725425720215,2.521778645727473
0.20878243446350098,2.5368294163738985
0.2112128734588623,2.5203767443152363
0.21362805366516113,2.5204345608275607
0.21605372428894043,2.519442739420264
0.21848535537719727,2.519817652680594
0.22090482711791992,2.51997977733371
0.2233281135559082,2.519212069417485
0.2257394790649414,2.5173518082322848
0.22818303108215332,2.5182727001038434
0.230604887008667,2.518009843589049
0.23301959037780762,2.517689766608449
0.23544788360595703,2.5001278519782844
0.2378864288330078,2.5177076480040133
0.24030685424804688,2.517637314514794
0.2427372932434082,2.5001206994200587
0.24518346786499023,2.5171038528804606
0.2476186752319336,2.500129044071322
0.25005531311035156,2.5147852319222963
0.25254273414611816,2.515155376810476
0.25502824783325195,2.515930833331446
0.2574594020843506,2.515285910998095
0.2599024772644043,2.514826359132094
0.2623414993286133,2.516226472404775
0.2647686004638672,2.5156310219324856
0.26725268363952637,2.516061963565584
0.2696805000305176,2.5161311049617656
0.2721128463745117,2.516012491704523
0.2745513916015625,2.5147756951779954
0.27701640129089355,2.5164797921752684
0.2794625759124756,2.5161650796133377
0.28191041946411133,2.51557856983883
0.28434228897094727,2.5162461419398956
0.2867746353149414,2.5160220284488237
0.289198637008667,2.515172066113003
0.29163479804992676,2.515931429377965
0.2940657138824463,2.516922058692224
0.29648303985595703,2.5001993775605413
0.2989201545715332,2.517167629857973
0.30133795738220215,2.5178036114935414
0.30376362800598145,2.5178340098660006
0.30618953704833984,2.5181576631257134
0.30860447883605957,2.5188908003438475
0.31102895736694336,2.5001642108159317
0.3134443759918213,2.516245545893377
0.3159198760986328,2.5185492656885704
0.3183572292327881,2.5195005559325883
0.32077884674072266,2.51940459244306
0.3232121467590332,2.534238998203158
0.32563281059265137,2.5205996657132705
0.3280637264251709,2.5208601380419897
0.33049440383911133,2.5215014840962273
0.3329169750213623,2.522058191544794
0.3353438377380371,2.522042694335305
0.3377652168273926,2.5213989640949923
0.3402090072631836,2.5221028950337048
0.3426375389099121,2.5225135710851636
0.34505653381347656,2.5226095345746917
0.3474915027618408,2.5224831727127044
0.34993696212768555,2.524019780638192
0.3523571491241455,2.523649635750012
0.35480356216430664,2.5239625601723863
0.3572204113006592,2.5254622132137077
0.35969018936157227,2.5253978401896764
0.3621222972869873,2.525778117868676
0.36457109451293945,2.527098360907836
0.36699914932250977,2.52779156300921
0.3694498538970947,2.5287440453462655
0.37187838554382324,2.5300207769895526
0.37433624267578125,2.5367388173030396
0.3767545223236084,2.53438800983286
0.37926769256591797,2.533652488428651
0.38169074058532715,2.5342556875056848
0.3841555118560791,2.535839383106158
0.38658928871154785,2.53789395545649
0.38904237747192383,2.5393375801250433
0.39147114753723145,2.5398561405964064
0.3939552307128906,2.539291684543095
0.396373987197876,2.543856804830647
0.39898228645324707,2.5262203843856317
0.401874303817749,2.5221255448014195
0.4047386646270752,2.5254371792599177
0.40771985054016113,2.545624082758913
0.4102749824523926,2.547216719057169
0.41272664070129395,2.549419706990684
0.4151725769042969,2.551489180503986
0.4175994396209717,2.5538554851836546
0.420046329498291,2.5571468540605133
0.42248106002807617,2.55922407617856
0.42490530014038086,2.5604894829379896
0.42735815048217773,2.5586435268692407
0.42980504035949707,2.56481022415283
0.4322319030761719,2.5662258346349995
0.4346656799316406,2.567442365579887
0.4370880126953125,2.5734254805356835
0.4395151138305664,2.5718596663307745
0.4419593811035156,2.5734910456527524
0.4443802833557129,2.574987122414961
0.446807861328125,2.575674364051147
0.44922327995300293,2.57655293661987
0.45165562629699707,2.576484987316726
0.45415329933166504,2.5771519633712723
0.45662951469421387,2.5777629110530507
0.45908331871032715,2.578044841056447
0.46150851249694824,2.5782683585010004
0.4639427661895752,2.579120705022896
0.46637606620788574,2.5780221912887322
0.46880459785461426,2.5790235494403304
0.4712402820587158,2.578257033617143
0.4736611843109131,2.575962254519731
0.47609734535217285,2.577504226863888
0.4785304069519043,2.5766828747609702
0.48094964027404785,2.5754138917224276
0.483379602432251,2.575851389867233
0.48581552505493164,2.5744626014784098
0.4882493019104004,2.575791785215352
0.4906785488128662,2.572307893312918
0.49309563636779785,2.571196266555341
0.49552106857299805,2.569468327697316
0.4979581832885742,2.5680753669828613
0.5003743171691895,2.566433258823545
0.502798318862915,2.5588122080340634
0.5052125453948975,2.5629320815720655
0.5076429843902588,2.561396069693097
0.5100688934326172,2.5593677233895926
0.5124843120574951,2.5561925835839014
0.5149099826812744,2.5552889770613882
0.5173239707946777,2.5533577863404497
0.5197491645812988,2.551498717248287
0.5221841335296631,2.5492790400122454
0.5246031284332275,2.5474259313852707
0.5270290374755859,2.5452879125223054
0.5294442176818848,2.543266718777027
0.5319197177886963,2.541855280620489
0.534351110458374,2.5404432464174325
0.5367677211761475,2.5384333775560113
0.5391995906829834,2.5370183631203607
0.5416171550750732,2.534376088902484
0.5440471172332764,2.533391420053413
0.5466501712799072,2.5295928155890484
0.5490975379943848,2.528030577663252
0.5514724254608154,2.5269290836964946
0.5538361072540283,2.5250372320457974
0.5561816692352295,2.523727717843976
0.5585324764251709,2.522118392243194
0.5608711242675781,2.5205805922246687
0.5632190704345703,2.51938969128009
0.5655558109283447,2.5174400231170684
0.567903995513916,2.517310681022487
0.5702495574951172,2.5168702026450878
0.5725870132446289,2.516143025892142
0.5749361515045166,2.5002792477940616
0.5772702693939209,2.514736952154273
0.5796122550964355,2.513561548419183
0.5819563865661621,2.500085532675449
0.5842938423156738,2.5122675314268506
0.5866348743438721,2.511179150483507
0.5889706611633301,2.5108048332696953
0.5913140773773193,2.510519923033705
0.5936503410339355,2.5104001176834245
0.5959913730621338,2.5099554669803936
0.598334550857544,2.509313524879637
0.6006700992584229,2.5097563874431117
0.6030113697052002,2.5098994386076257
0.6053471565246582,2.5093469034846905
0.6076912879943848,2.5098410260487825
0.6100327968597412,2.5032976273653063
0.6126561164855957,2.485763130875007
0.6153712272644043,2.4770262810023165
0.6180224418640137,2.481126485005198
0.6206808090209961,2.468619640901046
0.6233079433441162,2.4757304758704275
0.6259398460388184,2.4766537519280614
0.6285040378570557,2.4757042498236
0.6310060024261475,2.4747583239982514
0.6334686279296875,2.475281056795246
0.6359965801239014,2.4757716030802253
0.6385746002197266,2.4753078788885925
0.6410467624664307,2.4757924647083835
0.6436264514923096,2.475797829127053
0.6461164951324463,2.4773219200756453
0.6485748291015625,2.4761965842481355
0.651099681854248,2.4756368965669746
0.6536941528320312,2.4772313210047865
0.6563596725463867,2.4814817287304076
0.6589882373809814,2.4685242734580366
0.6616122722625732,2.480486331043998
0.6642229557037354,2.479989228247312
0.666853666305542,2.4851039034252054
0.6694252490997314,2.4850591999362948
0.6720185279846191,2.4873277529868787
0.6745903491973877,2.5096330058137184
0.6769740581512451,2.5113144530432763
0.6793818473815918,2.5176575800964334
0.6817352771759033,2.5222149517792407
0.6841006278991699,2.5343367498322427
0.6864569187164307,2.5307229197887087
0.6887943744659424,2.5342193286680375
0.6911461353302002,2.5391748594254087
0.6934843063354492,2.5391289638434604
0.6958327293395996,2.5454393083380826
0.6981761455535889,2.5491413532664007
0.7005100250244141,2.5501856267673526
0.7028687000274658,2.553975290533935
0.7052114009857178,2.556504911959757
0.7075550556182861,2.558975524780217
0.7099113464355469,2.5601938438646608
0.7122511863708496,2.56269485505758
0.7145984172821045,2.564434714845981
0.7170572280883789,2.565298386251734
0.7194211483001709,2.567106195343279
0.7217628955841064,2.566824265339883
0.7241542339324951,2.568197556519217
0.7265546321868896,2.569085665832241
0.7288944721221924,2.5687363825722196
0.7312541007995605,2.5688079081544766
0.7335929870605469,2.5677606544209306
0.7359380722045898,2.5688448630386427
0.738283634185791,2.5685939274542244
0.7406191825866699,2.5677958211655403
0.7429618835449219,2.567367859765036
0.7452995777130127,2.5587055157071967
0.7476425170898438,2.5662353713793005
0.7499866485595703,2.5650820213654066
0.7523212432861328,2.563633032278184
0.7546637058258057,2.5638178066990145
0.7569983005523682,2.573386141465442
0.7593395709991455,2.561280436668448
0.7616739273071289,2.5597748231619386
0.764014720916748,2.5573477217373517
0.7663545608520508,2.5570681759200307
0.7686898708343506,2.556275434050016
0.7710311412811279,2.554844922404876
0.7733643054962158,2.5525513354005023
0.7757046222686768,2.539238636402921
0.7780463695526123,2.549739783971284
0.7804083824157715,2.548308080233107
0.7827503681182861,2.546544378583953
0.7850852012634277,2.547794288133894
0.7874252796173096,2.5438585929702033
0.7897615432739258,2.5414273192199848
0.7921149730682373,2.54056960827942
0.7944910526275635,2.5390270398887442
0.796870231628418,2.5369688912592996
0.7992265224456787,2.534922663560231
0.8015670776367188,2.5344899337875764
0.803912878036499,2.5323489346920174
0.8062601089477539,2.53686875544414
0.8085949420928955,2.534269992622136
0.810936450958252,2.5297197734975545
0.8132710456848145,2.52838164906283
0.8156142234802246,2.527947727197138
0.8179574012756348,2.5260564715929594
0.8202910423278809,2.5249621301844276
0.8226354122161865,2.523904147613543
0.8249697685241699,2.522226276663098
0.8273153305053711,2.5195804261661086
0.8296515941619873,2.5342944305294073
0.8319940567016602,2.519498767793032
0.8343338966369629,2.519131007090927
0.8366663455963135,2.5179544112628
0.8390076160430908,2.5181582591722322
0.8413760662078857,2.517345251720578
0.8437173366546631,2.516210975195286
0.8460593223571777,2.5157532114688412
0.8483932018280029,2.5002512336076776
0.8507342338562012,2.5150206702972255
0.8531086444854736,2.514301242149024
0.8554723262786865,2.5138309614456844
0.8578357696533203,2.5137773172589917
0.8601772785186768,2.5116470470007712
0.8625495433807373,2.5129672900399314
0.864896297454834,2.513074578413317
0.8672409057617188,2.5128892079459675
0.8695759773254395,2.5127241030602576
0.8719203472137451,2.513276638183193
0.8742649555206299,2.5146940368049187
0.8766012191772461,2.5000712275589976
0.8789451122283936,2.5126650944548956
0.8812799453735352,2.513974608656717
0.8836231231689453,2.513912619818761
0.8859658241271973,2.513723673072299
0.888298749923706,2.5141909735430445
0.8906402587890625,2.513779105398548
0.8929767608642578,2.5134167091151127
0.8953206539154053,2.513612212373282
0.8976550102233887,2.5000753998846292
0.8999977111816406,2.514012159587402
0.9023406505584717,2.514791788434003
0.9046745300292969,2.5000432133726136
0.907017707824707,2.515358032626871
0.9093515872955322,2.5155642647223786
0.9116926193237305,2.515837850074512
0.9140336513519287,2.5164863486869753
0.916367769241333,2.516374887987958
0.918708086013794,2.51664906938661
0.9210410118103027,2.517552675909123
0.9233810901641846,2.5184145591753198
0.9257152080535889,2.51844436150126
0.9280557632446289,2.5182065389402557
0.9303979873657227,2.5191667698820557
0.9327328205108643,2.519103588951062
0.9350736141204834,2.5204041624551015
0.9374086856842041,2.520999612927391
0.9397504329681396,2.5210198785090303
0.9420919418334961,2.521683278284464
0.9444241523742676,2.522002759218545
0.9468021392822266,2.522611918760767
0.9491360187530518,2.522487941084855
0.9514756202697754,2.523634734587042
0.9538261890411377,2.523749175518653
0.956160306930542,2.5344577472755607
0.9585025310516357,2.5243291287814533
0.9608340263366699,2.5344702642524557
0.9631726741790771,2.5253203541422313
0.9655053615570068,2.5248995452999528
0.9678547382354736,2.519656124073997
0.9701972007751465,2.5265410574127505
0.9725320339202881,2.5264784725282756
0.9748754501342773,2.5367519303264534
0.9772107601165771,2.5195768498869957
0.9795551300048828,2.525759640426593
0.9819056987762451,2.5266441734605043
0.9842398166656494,2.526855769974681
0.9865810871124268,2.5272241267233047
0.9889140129089355,2.5273641976552246
0.9912564754486084,2.527859512312354
0.9935910701751709,2.52882689581238
0.9959316253662109,2.527990642546492
0.998274564743042,2.5285521183672093
1.0006301403045654,2.5291070376762197
1.0029690265655518,2.536893193351411
1.0053024291992188,2.5299152767557236
1.007643222808838,2.5303652918774238
1.0099825859069824,2.5312259830505828
1.0123155117034912,2.531371418401172
1.0146565437316895,2.5367137833492497
1.0169923305511475,2.5344762247176438
1.0193347930908203,2.5352010172845145
1.0216684341430664,2.5366249724179473
1.0240099430084229,2.5382998631357983
1.0263495445251465,2.5394770550104444
1.0286834239959717,2.53967434640817
1.0310258865356445,2.5393191026829602
1.0333616733551025,2.5432279757533043
1.0357043743133545,2.5450548583334514
1.0380470752716064,2.5465217288162383
1.0403807163238525,2.5481358227891713
1.0427205562591553,2.539242212682034
1.0450561046600342,2.550998634219007
1.047396183013916,2.5527861777289127
1.0497288703918457,2.554363912864198
1.0521173477172852,2.5536319677391015
1.0545268058776855,2.5570586391757297
1.0568690299987793,2.5580623815134027
1.0592143535614014,2.573510715187873
1.0615928173065186,2.5605014038683658
1.0639479160308838,2.5618878080711136
1.0662939548492432,2.573429652861315
1.0686309337615967,2.564449616008951
1.070976734161377,2.567016192318939
1.0733096599578857,2.5681331834951857
1.075655460357666,2.5688883744345157
1.077998161315918,2.5699821197965287
1.0803322792053223,2.57580787847136
1.082672357559204,2.572000333309213
1.0850062370300293,2.5724747863381845
1.0873479843139648,2.573333689371787
1.08968186378479,2.5741502731025543
1.0920207500457764,2.5740882842645982
1.0943641662597656,2.574796983575461
1.0967233180999756,2.5730899063455945
1.0991063117980957,2.575037190322541
1.1014494895935059,2.5734755484432634
1.1038012504577637,2.5733670679768403
1.1061453819274902,2.574996659159262
1.1084823608398438,2.574411937524311
1.110825538635254,2.5740471570548005
1.1131761074066162,2.575798341727059
1.1155247688293457,2.575819799401736
1.117884635925293,2.572159477729735
1.120220422744751,2.572062918193688
1.1225593090057373,2.57030160073061
1.124892234802246,2.5757780761454194
1.1272335052490234,2.5676485976753947
1.1295678615570068,2.5665804823136904
1.1319093704223633,2.5645104127538696
1.1342520713806152,2.564087219725516
1.1365854740142822,2.5626179650566536
1.1389257907867432,2.5621327831903438
1.1412577629089355,2.5595507096708667
1.1435964107513428,2.558909959663148
1.1459343433380127,2.5565376945182914
1.1482672691345215,2.539226715472545
1.1506142616271973,2.5546857779843544
1.152949333190918,2.553158110756649
1.1552886962890625,2.53908426035455
1.1576237678527832,2.5490263162882707
1.1599652767181396,2.547804420924714
1.1623070240020752,2.545997803926206
1.1646387577056885,2.544624512746872
1.1670072078704834,2.543101017844798
1.1693406105041504,2.541812365271135
1.1716794967651367,2.5397881912932623
1.174018383026123,2.538017337085883
1.1763520240783691,2.536575500556886
1.1786925792694092,2.535016838910203
1.1810271739959717,2.533384863541706
1.1833679676055908,2.532328669110378
1.1857004165649414,2.5314036049131876
1.188039779663086,2.5341978709933604
1.1903808116912842,2.52839178185365
1.1927151679992676,2.5270572336980384
1.1950554847717285,2.53441304378665
1.1973884105682373,2.52413064529069
1.1997292041778564,2.5236073164471766
1.2020716667175293,2.5223901894557703
1.2044048309326172,2.52121001734853
1.2067451477050781,2.5205782080385934
1.2090790271759033,2.519122662439664
1.2114191055297852,2.5184395931291097
1.2137532234191895,2.516937555901713
1.2161083221435547,2.517447175675294
1.2184510231018066,2.5168266912492148
1.2208256721496582,2.5162777324053924
1.2231676578521729,2.500247657328565
1.2255027294158936,2.515660824258426
1.22784423828125,2.5160691161238096
1.2301857471466064,2.5001421570947358
1.2325201034545898,2.5149890798317287
1.2348642349243164,2.513639630513147
1.2371973991394043,2.514009775401327
1.239537000656128,2.5141909735430445
1.241891860961914,2.5147196668052274
1.2442283630371094,2.5140383856342297
1.246570348739624,2.514836491922914
1.2489044666290283,2.500044405465651
1.2512462139129639,2.5146487372694892
1.2536113262176514,2.512868942364328
1.2559988498687744,2.514572443315082
1.2583532333374023,2.5147250312238967
1.260690450668335,2.5141885893569693
1.263059139251709,2.5154116768135637
1.2654030323028564,2.5158324856558427
1.2677505016326904,2.5170102735770077
1.2700958251953125,2.5169137140409608
1.2724380493164062,2.5172379633471924
1.2747821807861328,2.5174704214895276
1.2771189212799072,2.5182887933598512
1.2794959545135498,2.5188139103429212
1.281848430633545,2.519684138260381
1.2841832637786865,2.5205901289689696
1.2865262031555176,2.5344309251822144
1.2888619899749756,2.520862522228065
1.2912051677703857,2.5219234850315435
1.2935388088226318,2.5220349457305606
1.2958769798278809,2.5228551057404407
1.298217535018921,2.5235083727250545
1.3005506992340088,2.5242361455245192
1.3028905391693115,2.524997892975556
1.3052246570587158,2.525551620191529
1.3075659275054932,2.5262454183394216
1.3099374771118164,2.5273838671903452
1.3122751712799072,2.526896897184479
1.3146169185638428,2.53683358869953
1.316951036453247,2.5286659632523016
1.319291353225708,2.5306704676950535
1.3217103481292725,2.52715140904801
1.3245773315429688,2.529568973728296
1.3269712924957275,2.53666371544167
1.329322338104248,2.529761496753871
1.3316729068756104,2.5302544272249254
1.3340237140655518,2.5311860479338226
1.3363633155822754,2.5342783372733995
1.3387322425842285,2.531110946072453
1.3410732746124268,2.5309661067683824
1.34342360496521,2.531896535384242
1.3457627296447754,2.532120052828795
1.3481206893920898,2.5318911709655727
1.350471019744873,2.5322982707379187
1.3528077602386475,2.5328233877209887
1.3551759719848633,2.533135716096844
1.3575119972229004,2.532846633535222
1.3598575592041016,2.534320656576235
1.3622002601623535,2.5342354219240453
1.3645358085632324,2.5367757721872057
1.366877555847168,2.5342533033196095
1.3692126274108887,2.53307789958452
1.3715569972991943,2.532856170279523
1.3739039897918701,2.532670203765655
1.3762414455413818,2.5321689286433373
1.378584861755371,2.5319936909668077
1.3809194564819336,2.5313845314245857
1.3832619190216064,2.5316926874748096
1.385596513748169,2.5309690870009764
1.387939214706421,2.530703846300107
1.3902814388275146,2.534422580530951
1.3926150798797607,2.5368669673045834
1.3949565887451172,2.5298199093127143
1.3973302841186523,2.5288400088357936
1.3996846675872803,2.528649273949775
1.4020318984985352,2.528599802088714
1.404367446899414,2.5282099876654134
1.4067494869232178,2.5282195244097143
1.4090862274169922,2.527599636030154
1.411428451538086,2.52720147695559
1.4137649536132812,2.5342479389009402
1.4161183834075928,2.5368705435836962
1.4184598922729492,2.5196865224464564
1.420795202255249,2.5367853089315067
1.4231364727020264,2.519824209192301
1.4254722595214844,2.524414363433643
1.427819013595581,2.5246199994826317
1.4301674365997314,2.5234702257478507
1.4325039386749268,2.5238040117983833
1.434847354888916,2.5237479834256153
1.4371819496154785,2.534454170996448
1.439523696899414,2.523114982022641
1.441877841949463,2.534179989597796
1.4442121982574463,2.5224211838747483
1.4465537071228027,2.5220105078232895
1.4488880634307861,2.5185522459211644
1.4512293338775635,2.5002136826769927
1.4535949230194092,2.5134578363249105
1.4559519290924072,2.5000306963957186
1.458299160003662,2.512430848173004
1.4606566429138184,2.510765494199454
1.4630091190338135,2.509972752329439
1.465346336364746,2.510255874425873
1.4676923751831055,2.5098994386076257
1.4700398445129395,2.500123083606134
1.4723761081695557,2.509002984643338
1.4747223854064941,2.50845700603211
1.4770581722259521,2.508316339053671
1.4794011116027832,2.508313358821077
1.481736183166504,2.508633435801677
1.484093427658081,2.500087916861524
1.486438274383545,2.5088503967345233
1.4887723922729492,2.5085452209168935
1.4911162853240967,2.5091823946454994
1.4934515953063965,2.5000897050010806
1.4957938194274902,2.5087443004541754
1.4981358051300049,2.5087562213845516
1.5004706382751465,2.5094124686017594
1.502812147140503,2.5093492876707657
1.50514554977417,2.5092127930179586
1.5074853897094727,2.5002554059333093
1.5098364353179932,2.5002822280266557
1.512171983718872,2.509282530460659
1.514512300491333,2.5002577901193845
1.5168464183807373,2.51479834494571
1.5191876888275146,2.500253617793753
1.5215435028076172,2.511253656298358
1.52388334274292,2.5107517851295214
1.5262248516082764,2.5114634646729783
1.528559684753418,2.511383594439458
1.530900478363037,2.5111958397860334
1.5332341194152832,2.5168958326453965
1.5355751514434814,2.518833579878042
1.5379152297973633,2.5197538757030817
1.5402507781982422,2.5206521178069257
1.5425939559936523,2.520657482225595
1.5449273586273193,2.521648707586373
1.5474467277526855,2.5225946334117215
1.5498502254486084,2.5225767520161573
1.5522041320800781,2.5231066373713777
1.5545589923858643,2.5243189959906336
1.5569005012512207,2.5240454106385006
1.559248924255371,2.5252178341409963
1.5615875720977783,2.5256273180994175
1.5639352798461914,2.5251987606523945
1.5662832260131836,2.5264158876438008
1.5686585903167725,2.526604238343744
1.5710101127624512,2.5267794760202738
1.5733492374420166,2.5266936453215654
1.575697660446167,2.527526918354859
1.5780577659606934,2.527160945792311
1.5803940296173096,2.527542415564348
1.5827405452728271,2.5276497039377337
1.5850770473480225,2.5284901295292532
1.5874197483062744,2.5282713804568506
1.5897552967071533,2.53438800983286
1.5921106338500977,2.528375688597642
1.5944545269012451,2.5282290611540152
1.5967912673950195,2.5280669365008994
1.5991358757019043,2.528314295806205
1.6014950275421143,2.52868682488046
1.6038453578948975,2.5285413895298707
1.6061992645263672,2.528839412789275
1.608539342880249,2.5341948907607663
1.6108872890472412,2.5287470255788596
1.613224744796753,2.5287660990674614
1.615567684173584,2.5291350518626037
1.6179139614105225,2.5295326148906487
1.6202514171600342,2.5289306079066525
1.6225941181182861,2.525480094609272
1.6249821186065674,2.5274887713776555
1.627342939376831,2.5198355340761585
1.6296846866607666,2.5279048118477836
1.6320295333862305,2.5274547967260834
1.634373426437378,2.536738221256521
1.6367475986480713,2.5278517637076097
1.639096975326538,2.52838164906283
1.6414318084716797,2.5279989871977553
1.6437757015228271,2.528050247198373
1.6461212635040283,2.5276842746358246
1.64845871925354,2.528320256271393
1.6508030891418457,2.5196549319809596
1.653137445449829,2.5306513942064517
1.6555535793304443,2.5296226179149888
1.6579294204711914,2.5296023523333493
1.6602725982666016,2.530432645134049
1.6626698970794678,2.530746761649461
1.6650240421295166,2.5301894581543753
1.6673765182495117,2.531219426538876
1.66971755027771,2.5323489346920174
1.6720609664916992,2.5326839128355876
1.6744558811187744,2.5139704363310855
1.6770222187042236,2.500057518489065
1.6796238422393799,2.508866489990531
1.6822092533111572,2.5078150639313534
1.684870719909668,2.5066939004294753
1.6875042915344238,2.5150761026234747
1.6902906894683838,2.517785730097977
1.6929233074188232,2.5257483155427356
1.6953773498535156,2.5296023523333493
1.697749376296997,2.531958524222198
1.700110912322998,2.5353851956588263
1.7024946212768555,2.5385329173246522
1.7048397064208984,2.539928262225182
1.7072081565856934,2.5437834911088335
1.7095513343811035,2.545534079734573
1.7119035720825195,2.54804641581135
1.714263916015625,2.5503817260720405
1.7166056632995605,2.55092710863675
1.7189686298370361,2.5544485514698687
1.7213072776794434,2.539217178728244
1.7236874103546143,2.558676309427775
1.7260465621948242,2.560793466662582
1.7283861637115479,2.562246628075436
1.7307357788085938,2.563782043907886
1.7330732345581055,2.565437861137135
1.7354176044464111,2.5667443951063627
1.737752914428711,2.5678727111664665
1.7401230335235596,2.5700858318908013
1.7424678802490234,2.5707820142247693
1.7448031902313232,2.571410843302112
1.7471463680267334,2.572227427032879
1.7494828701019287,2.5729277816924787
1.7518281936645508,2.5733348814648247
1.7542133331298828,2.5743678300819193
1.7565503120422363,2.5742343156617062
1.758897066116333,2.5752064675338824
1.7612323760986328,2.5757029742840496
1.7635769844055176,2.5749114245070723
1.7659204006195068,2.574312993802189
1.7682557106018066,2.573825427749804
1.7705986499786377,2.5758674831232407
1.7729341983795166,2.573790857051713
1.7752752304077148,2.5759616584732123
1.7776081562042236,2.5723561730809417
1.779951572418213,2.5718787398193763
1.7822928428649902,2.570835062364943
1.7846267223358154,2.5758835763792485
1.7869691848754883,2.5758525819602704
1.7893030643463135,2.5681373558208174
1.7916438579559326,2.566336103240979
1.7939894199371338,2.564863272293004
1.7963242530822754,2.5640568213530566
1.7986650466918945,2.5617674066743144
1.8009982109069824,2.5588586996625304
1.803340196609497,2.559205598736477
1.8056731224060059,2.5585702131474273
1.808032751083374,2.539328639427261
1.8103752136230469,2.55487293659126
1.812708854675293,2.553254670292696
1.8150475025177002,2.5517275991115094
1.8173799514770508,2.5502893388616252
1.81972336769104,2.5391504215181375
1.822065830230713,2.5469860490543903
1.8243989944458008,2.545820182063601
1.8267786502838135,2.543940847389799
1.8291194438934326,2.5393459247763066
1.8314628601074219,2.5404116559519356
1.8338360786437988,2.538478081044922
1.8361761569976807,2.5378325626650526
1.8385159969329834,2.545229499963462
1.8408498764038086,2.545674746713012
1.843193769454956,2.5454148704308115
1.8455278873443604,2.545221155312199
1.8478693962097168,2.5405868936284652
1.8502156734466553,2.5425723245826153
1.8525526523590088,2.539258305938042
1.8549330234527588,2.541644280152831
1.857276201248169,2.539183204076672
1.859628677368164,2.5390878366336627
1.861994981765747,2.5406512666524965
1.8643343448638916,2.5399640250163107
1.8667223453521729,2.539372746869653
1.8690598011016846,2.5376084491739808
1.8714056015014648,2.536634509162248
1.8737390041351318,2.5344702642524557
1.8761253356933594,2.536270920785775
1.878467321395874,2.5351706189120553
1.880803108215332,2.5350764435620836
1.8831510543823242,2.5344333093682896
1.8854858875274658,2.5341758172721645
1.8878278732299805,2.534077469596561
1.890174150466919,2.5334170500537216
1.892509937286377,2.5333204905176747
1.8948509693145752,2.53243774562332
1.8971827030181885,2.531318966307517
1.899526596069336,2.531088296304738
1.90187668800354,2.530445162110944
1.9042096138000488,2.5304874814137794
1.9065501689910889,2.536812727071372
1.908883810043335,2.5291445886069046
1.911224126815796,2.529347840469818
1.9135568141937256,2.5291761790724014
1.9158966541290283,2.5367733880011305
1.9182357788085938,2.534372512623371
1.9205811023712158,2.5195375108167544
1.9229199886322021,2.5280162725468007
1.9252502918243408,2.5275287064944156
1.9275918006896973,2.5276753339380424
1.9299335479736328,2.5343528430882505
1.9322662353515625,2.527203861141665
1.9346058368682861,2.5268790157889147
1.936939001083374,2.526812854625327
1.9392774105072021,2.5197210931445473
1.9416122436523438,2.5276348027747635
1.9439513683319092,2.526855769974681
1.9462916851043701,2.534416024019244
1.9486258029937744,2.5269892843948942
1.9509646892547607,2.5204131031528836
1.9533004760742188,2.5269952448600823
1.955641508102417,2.534323636808829
1.9579846858978271,2.526937428347758
1.960317611694336,2.5274041327719847
1.962656021118164,2.519650759655328
1.9649884700775146,2.5276526841703277
1.9673285484313965,2.5285914574374506
1.969667673110962,2.528145614641382
1.972008228302002,2.5288495455800946
1.9743835926055908,2.529526058378942
1.9767167568206787,2.5306853688580238
1.9790573120117188,2.53103226793197
1.981391191482544,2.531934086314927
1.9837305545806885,2.5321689286433373
1.986074447631836,2.532804314232387
1.9884085655212402,2.5336512963356133
1.990746259689331,2.5342562835522036
1.9930789470672607,2.5337502400577354
1.9954164028167725,2.5330016056301123
1.997786521911621,2.5339338223855283
2.000135660171509,2.534230653551895
2.00247859954834,2.5345048349505466
2.0048131942749023,2.535380427286676
2.0071518421173096,2.535683814964749
2.0094850063323975,2.5355896396147775
2.0118281841278076,2.5362429065993912
2.0141706466674805,2.5369092866074188
2.0165061950683594,2.536516491951524
2.0188448429107666,2.5367549105590474
2.021179437637329,2.536824648001748
2.023519992828369,2.537305657542426
2.0258848667144775,2.536920611491276
2.0282373428344727,2.537058298237121
2.030578851699829,2.537539903824318
2.0329108238220215,2.5372639342861096
2.035252809524536,2.537812893129932
2.0375866889953613,2.5372079059133417
2.039926767349243,2.5372365161462445
2.0422661304473877,2.5367555066055663
2.04459810256958,2.5366297407900977
2.046938180923462,2.5365057631141856
2.049271821975708,2.534236614017083
2.05161190032959,2.534826104024184
2.053952932357788,2.5291445886069046
2.056318998336792,2.536864583118508
2.0586771965026855,2.533981506107033
2.0610175132751465,2.532290522133174
2.063382148742676,2.533755008429886
2.0657241344451904,2.5327429214409496
2.0680675506591797,2.5324568191119217
2.07041597366333,2.532154027480367
2.07275390625,2.5342837016920687
2.0750956535339355,2.5314447321229854
2.0774290561676025,2.534372512623371
2.0799548625946045,2.5296893751250953
2.0823473930358887,2.5291457806999422
2.08469820022583,2.5291350518626037
2.087085485458374,2.5288555060452826
2.0894289016723633,2.5290182267449173
2.0918190479278564,2.5367894812571383
2.0941662788391113,2.527962032313589
2.096503496170044,2.528046074872741
2.098846435546875,2.5279679927787773
2.101184129714966,2.5273612174226305
2.103525161743164,2.5198015594245864
2.1058788299560547,2.5266841085772644
2.10821533203125,2.5275573167273184
2.1105587482452393,2.526632848576647
2.1128957271575928,2.526240649967271
2.1152381896972656,2.525787654612977
2.1175782680511475,2.5256183774016354
2.1199262142181396,2.5259974629875974
2.1222972869873047,2.525472942051046
2.1246371269226074,2.524845305066741
2.1270008087158203,2.5243869452937777
2.129347085952759,2.524998489022075
2.1316921710968018,2.525132003442288
2.134042263031006,2.524967494603097
2.136380195617676,2.524923387160705
2.1387362480163574,2.5246110587848496
2.14107608795166,2.5249186187885546
2.143421173095703,2.5344112556470937
2.145756244659424,2.5232294229542522
2.1481142044067383,2.5234702257478507
2.1504898071289062,2.534475628671125
2.1528241634368896,2.5232622055127867
2.1551647186279297,2.517618241026192
2.1574981212615967,2.520940604322029
2.1598401069641113,2.521763744564503
2.1621837615966797,2.5216498996794106
2.164517402648926,2.521555724329439
2.1668577194213867,2.522397938060515
2.169189929962158,2.5197973870989547
2.1715290546417236,2.5222399857330307
2.1738810539245605,2.522303762710543
2.1762161254882812,2.522083225498584
2.1785616874694824,2.5225260880620586
2.1808979511260986,2.5231197503947915
2.1832387447357178,2.5233557848162396
2.185573101043701,2.5235304264462504
2.1879122257232666,2.5237813620306686
2.1902549266815186,2.523344459932382
2.1925902366638184,2.523612680865846
2.194929838180542,2.5197538757030817
2.1972618103027344,2.522636952714557
2.199604034423828,2.5229832557419845
2.201946496963501,2.5369045182352683
2.204289197921753,2.5230672983011364
2.2066309452056885,2.523845139008181
2.2089650630950928,2.523453536445324
2.211308002471924,2.5233367113276377
2.2136425971984863,2.5231936601631237
2.215982675552368,2.524395289945041
2.2183213233947754,2.5240269331964176
2.220655679702759,2.523218098070395
2.222994804382324,2.522854509693922
2.2253878116607666,2.52391070412525
2.2277441024780273,2.523361149234909
2.2300913333892822,2.5234797624921517
2.2324280738830566,2.5231382278368746
2.2347750663757324,2.523002925277105
2.237112045288086,2.52342552225894
2.239454507827759,2.4995425342968147
2.242112398147583,2.5147005933166255
2.2444987297058105,2.519131007090927
2.2468607425689697,2.519305052674419
2.249204635620117,2.5195315503515663
2.251565933227539,2.520259323151031
2.253918409347534,2.500131428257397
2.256294012069702,2.5190708063925276
2.2586560249328613,2.5100711000050424
2.2609996795654297,2.5148627179697414
2.2633795738220215,2.5194314145364065
2.2657270431518555,2.519995870589718
2.2680881023406982,2.5211843873482214
2.2704365253448486,2.521624269679102
2.272777557373047,2.536915247072607
2.2751405239105225,2.52231031922225
2.2774758338928223,2.5219354059619197
2.279820442199707,2.5229552415556005
2.2821640968322754,2.5239995150565524
2.2844998836517334,2.52432078413019
2.2868432998657227,2.5248625904157866
2.289179563522339,2.5263229043868667
2.291520118713379,2.5263831050852663
2.2938716411590576,2.526427212527658
2.2962074279785156,2.5265994699715937
2.2985482215881348,2.527523938122265
2.3008813858032227,2.527607980681417
2.3032217025756836,2.53683358869953
2.3055577278137207,2.528328600922656
2.3078994750976562,2.5295922195425296
2.310241937637329,2.529053393489527
2.3125836849212646,2.528829876044974
2.3149335384368896,2.529905143964904
2.3172695636749268,2.536631528929654
2.319615364074707,2.5316587128232375
2.3219597339630127,2.5317558684058032
2.3242952823638916,2.5323048272496256
2.3266727924346924,2.532791201208973
2.329008102416992,2.533139292375957
2.3313522338867188,2.5335601012182356
2.333686113357544,2.5339302461064155
2.3360280990600586,2.53508836449246
2.338371753692627,2.53585845659476
2.3407068252563477,2.537231747774094
2.343050479888916,2.53747374266073
2.345418691635132,2.538135354296607
2.3477652072906494,2.539745871990427
2.3501107692718506,2.54149467247661
2.3524441719055176,2.5421676089963445
2.3547866344451904,2.5435635499433933
2.357121229171753,2.544527953210825
2.3594627380371094,2.542361324114957
2.3618383407592773,2.5391474412855435
2.3641951084136963,2.5476351437133724
2.366542339324951,2.549077576288888
2.368880271911621,2.55081207165862
2.3712258338928223,2.552241391210722
2.373561382293701,2.553854293090617
2.3759028911590576,2.55397290634786
2.3782474994659424,2.556660480101166
2.380589008331299,2.558011717559304
2.382927894592285,2.5593373250171334
2.3852603435516357,2.5733509747208325
2.387599229812622,2.5627955869192585
2.389939069747925,2.563347525995675
2.3922722339630127,2.565235801367259
2.3946292400360107,2.5655254799754
2.396967649459839,2.575910398472595
2.3993237018585205,2.558807439661913
2.4016637802124023,2.5690105639708714
2.404008388519287,2.5696405851412516
2.406353712081909,2.5706389630602553
2.408688545227051,2.5718012537719313
2.4110300540924072,2.5723907437790325
2.413363218307495,2.5722512688936314
2.415706157684326,2.5724563088961014
2.418048620223999,2.5757059545166436
2.420384407043457,2.573306271231922
2.4227242469787598,2.5741645782190057
2.4250564575195312,2.574005433798484
2.4274046421051025,2.5731471268114
2.4297423362731934,2.575921723356452
2.4321017265319824,2.572874733552305
2.43444561958313,2.575733372656509
2.436781167984009,2.5720217909838903
2.4391276836395264,2.5719240393548057
2.4414901733398438,2.570857712132658
2.4438319206237793,2.5701716625895097
2.4461731910705566,2.5691929542056267
2.4485080242156982,2.5683179579160162
2.4508466720581055,2.5677493295370732
2.4531781673431396,2.5661912639369087
2.4555413722991943,2.5759795398687766
2.4579360485076904,2.5645503478706297
2.4602742195129395,2.5617984010932924
2.4626383781433105,2.554673857053978
2.464977264404297,2.5579753587216567
2.467322826385498,2.5576689908109893
2.4696614742279053,2.5567534633581
2.4720065593719482,2.5555422968318817
2.4743473529815674,2.5543281500730695
2.4766807556152344,2.5520822467902002
2.4790198802948,2.5512704314315835
2.481351852416992,2.548913067449697
2.483689546585083,2.5485232530263966
2.4860291481018066,2.547248309522666
2.4883604049682617,2.545851176482579
2.490696668624878,2.5448611432148387
2.493054151535034,2.5393614219857956
2.4953978061676025,2.5421741655080514
2.4977307319641113,2.5390753196567677
2.5000851154327393,2.539583747337311
2.502425193786621,2.5379070684799037
2.5047554969787598,2.536926571956464
2.507093667984009,2.5357171935698024
2.5094239711761475,2.536669079860339
2.51176118850708,2.532918159117479
2.514101028442383,2.5323513188780926
2.516432285308838,2.5310429967693087
2.518770217895508,2.530323568621107
2.521099090576172,2.5288566981383203
2.5234384536743164,2.528518143715637
2.525784969329834,2.5268885525332156
2.528122901916504,2.5260928304306067
2.5304603576660156,2.525157037396078
2.5327911376953125,2.5236323504009666
2.5351312160491943,2.523417177607677
2.5374629497528076,2.522257867128595
2.5398008823394775,2.521176042696958
2.5421390533447266,2.520971002694488
2.5444698333740234,2.5122299804961656
2.5497560501098633,2.5121644153790967
2.5522260665893555,2.5121131553784792
2.554593086242676,2.5127765551539127
2.5569353103637695,2.5001993775605413
2.5592870712280273,2.5108328474560793
2.5616300106048584,2.5136724130716814
2.5639753341674805,2.511902154910821
2.5663180351257324,2.5101181876800283
2.568653106689453,2.5130602732968654
2.5709939002990723,2.5130507365525645
2.573326349258423,2.512933911434878
2.575666904449463,2.5128242388754174
2.578007936477661,2.500175535699789
2.580338716506958,2.513804735398857
2.5826852321624756,2.5143024342420617
2.585020065307617,2.514426411917974
2.587360143661499,2.5149998086690672
2.589691400527954,2.5157651323992174
2.5920302867889404,2.5161227603105023
2.5943708419799805,2.5165322442689235
2.596705198287964,2.517248692184531
2.599064350128174,2.5166127105489626
2.601400852203369,2.5166293998514893
2.603748083114624,2.5148156302947555
2.6060898303985596,2.5190964363928363
2.6084532737731934,2.519101204764987
2.61079740524292,2.519817652680594
2.6131300926208496,2.520868482693253
2.6154747009277344,2.5216290380512523
2.6178362369537354,2.5224831727127044
2.6201744079589844,2.523848715287294
2.622533082962036,2.5240984587786746
2.6248652935028076,2.5196990394233514
2.6272075176239014,2.5195708894218076
2.629539966583252,2.525719705309833
2.6318774223327637,2.5263360174102805
2.6342170238494873,2.5274661216099408
2.6365652084350586,2.5269320639290886
2.6389150619506836,2.528286281619821
2.6412479877471924,2.528540793483352
2.6435883045196533,2.5292810832597117
2.645927667617798,2.5293096934926145
2.6482608318328857,2.52917200674677
2.6506009101867676,2.5344052951819056
2.6529321670532227,2.530644837694745
2.6552696228027344,2.529450956517572
2.657639980316162,2.5366774245116024
2.6599996089935303,2.530339065830596
2.6623706817626953,2.5316426195672297
2.6647109985351562,2.531675998172283
2.6670570373535156,2.527303996956825
2.6693906784057617,2.5309094823490956
2.6717352867126465,2.5320836939911477
2.6741044521331787,2.5328621307447112
2.676436185836792,2.53278762492986
2.6787760257720947,2.531872097476971
2.68110728263855,2.532906238187103
2.6834464073181152,2.5328400770235153
2.68579363822937,2.532828752139658
2.6881306171417236,2.5337186495922386
2.69046950340271,2.5342509191335343
2.692800760269165,2.533446852379662
2.695143461227417,2.5336262623818233
2.697476863861084,2.53425807169176
2.699814558029175,2.5341787975047585
2.7021536827087402,2.5343623798325514
2.704484701156616,2.5341418426205924
2.7068240642547607,2.5344780128572
2.7091572284698486,2.534336153785724
2.7114953994750977,2.534075085410486
2.7138657569885254,2.5323447623663857
2.716217041015625,2.5334075133094207
2.7185592651367188,2.5367978259084016
2.7208945751190186,2.532064024456027
2.723263740539551,2.532835308651365
2.7256033420562744,2.533326450982863
2.727985143661499,2.532756630510882
2.7303266525268555,2.532654110509647
2.732658863067627,2.5316622891023504
2.7350006103515625,2.5315538086359273
2.7373344898223877,2.531296316539802
2.739673376083374,2.5311031974677083
2.7420170307159424,2.529897991406678
2.744349241256714,2.5293400918650737
2.7466883659362793,2.5344583433220795
2.749019145965576,2.5298526918712487
2.751356840133667,2.529273930701486
2.7536873817443848,2.5367263003261447
2.756026268005371,2.5279703769648525
2.7583677768707275,2.5277522239389687
2.760697841644287,2.5195369147702356
2.763036012649536,2.5262793929909937
2.765367031097412,2.5257977874037967
2.7677061557769775,2.5255587727497546
2.7700464725494385,2.5187411926676266
2.772378444671631,2.5195685052357324
2.7747139930725098,2.5238129524961654
2.7770469188690186,2.522428932479493
2.7793948650360107,2.522918882717953
2.78175687789917,2.5220999148011107
2.7841062545776367,2.5368073626527026
2.786447525024414,2.5215575124689953
2.788780689239502,2.534426156810064
2.791121482849121,2.5217285778198932
2.7934515476226807,2.521704735959141
2.795788049697876,2.521027031067256
2.798126697540283,2.52110511316122
2.8004579544067383,2.5212863113029376
2.8027963638305664,2.520943584554623
2.805126190185547,2.520828547576493
2.807464599609375,2.5212058450228985
2.809809684753418,2.5209638501362623
2.8121466636657715,2.521200480604229
2.8144874572753906,2.5204232359437033
2.8168177604675293,2.5196769857021555
2.81915545463562,2.5205621147825856
2.821486234664917,2.520104351056141
2.8238232135772705,2.534196082853804
2.8261594772338867,2.5199154043096788
2.828489303588867,2.5194403552341886
2.830826997756958,2.5193628691867436
2.8331570625305176,2.5196114205850866
2.835495710372925,2.5205805922246687
2.8378713130950928,2.5202944898956408
2.8402016162872314,2.5204542303626813
2.8425395488739014,2.520703377807543
2.844869375228882,2.520595493387639
2.8472070693969727,2.5195500277936493
2.8495378494262695,2.5209566975780366
2.851874351501465,2.5215789701436724
2.854212522506714,2.5218829538682646
2.856550455093384,2.5202396536159104
2.858921527862549,2.5214019443275864
2.8612592220306396,2.520620527341429
2.8636181354522705,2.521776261541398
2.8659658432006836,2.5221064713128176
2.868332862854004,2.5219330217758444
2.8706789016723633,2.534407083321462
2.873014211654663,2.5164607186866665
2.8753552436828613,2.5197479152378937
2.8776888847351074,2.5219520952644463
2.8800337314605713,2.5228837159733435
2.8823764324188232,2.5220969345685167
2.8847079277038574,2.522630992249369
2.88704776763916,2.5231447843485815
2.889404773712158,2.5230893520223323
2.8917438983917236,2.523482146678227
2.8940834999084473,2.523146572488138
2.8964154720306396,2.5231483606276943
2.898754358291626,2.5196859263999376
2.9010908603668213,2.524109187616013
2.9034314155578613,2.534379069135078
2.9057624340057373,2.5242421059897073
2.9081194400787354,2.5068166860123497
2.910707712173462,2.497158348221582
2.9132800102233887,2.495287954245562
2.9158897399902344,2.51478344378274
2.9183108806610107,2.516471447524005
2.920658588409424,2.5165072103151336
2.923011064529419,2.517130078927288
2.925352096557617,2.5186392687129104
2.9276962280273438,2.518922986855863
2.930040121078491,2.5342991989015577
2.9323744773864746,2.519998254775793
2.9347152709960938,2.5206616545512266
2.937049150466919,2.521371545955127
2.939389228820801,2.5225290682946526
2.9417226314544678,2.5221255448014195
2.944061756134033,2.5218108322394888
2.9464058876037598,2.522301378524468
2.9487416744232178,2.5231501487672507
2.9510812759399414,2.523325982490299
2.953413248062134,2.5238308338917297
2.955753803253174,2.5243619113399878
2.958095073699951,2.5246521859946474
2.9604291915893555,2.5249508053005703
2.9628047943115234,2.5257387787984347
2.965137243270874,2.5250247150689025
2.967477321624756,2.525387111352338
2.9698314666748047,2.5252577692577565
2.972170352935791,2.526169124385014
2.974510669708252,2.520436945013636
2.976844549179077,2.5247857004148604
2.9791860580444336,2.526113692058765
2.981520891189575,2.526433769039365
2.9838597774505615,2.5263610513640704
2.986201047897339,2.5274661216099408
2.9885337352752686,2.5366869612559033
2.990927219390869,2.528925243487983
2.993269920349121,2.5342503230870155
2.995617151260376,2.5295588409374763
2.9979608058929443,2.5304910576928923
3.0002949237823486,2.5312677063068993
3.0026416778564453,2.53256768376442
3.0049753189086914,2.533425394704985
3.007314682006836,2.534485165415426
3.009648323059082,2.5368264361413044
3.0119900703430176,2.5359717054333335
3.0143299102783203,2.53744870870694
3.016688585281372,2.538462583835433
3.019030809402466,2.5403967547889654
3.0213658809661865,2.542424505045951
3.0237066745758057,2.544250791579579
3.026049852371216,2.539298241054802
3.028383255004883,2.546870416029741
3.030722141265869,2.5483706651175817
3.0330543518066406,2.556250400096226
3.0353963375091553,2.55167216678526
3.037729263305664,2.553285664711674
3.0400826930999756,2.554235762862654
3.0424251556396484,2.5561705298627055
3.044757843017578,2.5573644110398783
3.0470993518829346,2.5588706205929066
3.0494325160980225,2.573305675185403
3.051771879196167,2.5758060903318034
3.0541117191314697,2.562402196216845
3.056488037109375,2.5635108427418283
3.058842182159424,2.5734260765822023
3.061180591583252,2.564850755316109
3.063552141189575,2.566967316504397
3.065918207168579,2.5671961983676193
3.068253517150879,2.575698205911899
3.070596694946289,2.575798341727059
3.072932004928589,2.5701007330537715
3.0752758979797363,2.5732424942544094
3.0776398181915283,2.564891882525907
3.079979658126831,2.570997187018059
3.082319736480713,2.5709989751576154
3.0846521854400635,2.5713118995799897
3.086991310119629,2.572380610988213
3.0893239974975586,2.5734666077454813
3.091661214828491,2.572212525869909
3.0940003395080566,2.5724032607559275
3.0963306427001953,2.575869271262797
3.0986742973327637,2.571708270514997
3.1010100841522217,2.57349223774579
3.103348970413208,2.570637174920699
3.1056809425354004,2.5757351607960652
3.1080198287963867,2.5691989146708147
3.1103601455688477,2.5684502802431917
3.1126933097839355,2.5675085267434747
3.1150338649749756,2.566715188826941
3.1173675060272217,2.565552898115265
3.1197052001953125,2.564301200425768
3.1220452785491943,2.563055463201459
3.124377489089966,2.5732883898363577
3.1267483234405518,2.575937220565941
3.129084587097168,2.558972544547623
3.1314449310302734,2.5562730498639405
3.13379168510437,2.5556150145071763
3.1361374855041504,2.554149932163946
3.138479232788086,2.5525406065631637
3.140815258026123,2.55111724747625
3.143153190612793,2.549724286761795
3.14548397064209,2.5392904924500574
3.1478235721588135,2.5465360339326897
3.1501622200012207,2.545727198806667
3.152494430541992,2.5392398284959588
3.1548333168029785,2.5429657152850287
3.1571648120880127,2.5403747010677695
3.1595048904418945,2.5393644022183897
3.1618549823760986,2.537374798938608
3.164186477661133,2.5366649075347074
3.1665244102478027,2.536902730095712
3.1688575744628906,2.533851567965933
3.1711983680725098,2.5332501570284554
3.1735312938690186,2.534301583087633
3.1758675575256348,2.5306704676950535
3.1782073974609375,2.5368383570716806
3.180539608001709,2.5235709576095293
3.182878017425537,2.525706592286419
3.185208797454834,2.5246420532038276
3.1875481605529785,2.5232961801643587
3.18989896774292,2.5223705199206496
3.1922314167022705,2.52106994641661
3.194568157196045,2.5201395178007506
3.1969001293182373,2.518902125227705
3.199256420135498,2.5185301921999685
3.2015931606292725,2.5181636235909015
3.2039339542388916,2.517307104743374
3.206275224685669,2.516410054732568
3.208608388900757,2.5164541621749597
3.2109477519989014,2.5160041470532595
3.2132811546325684,2.515363993092059
3.21562123298645,2.500271499189317
3.2179598808288574,2.5144770758720725
3.2202951908111572,2.5150486844836095
3.2226343154907227,2.515236439137034
3.224966049194336,2.5145480054078106
3.2273032665252686,2.5141188519142688
3.229635715484619,2.513717116560592
3.2319977283477783,2.5144121068015224
3.234339475631714,2.5144431012205004
3.2366721630096436,2.514289321218648
3.2390124797821045,2.514932455412442
3.2413463592529297,2.5148156302947555
3.2436861991882324,2.515810431934647
3.246025323867798,2.500032484535275
3.2483646869659424,2.515301408207584
3.250715494155884,2.515884341702979
3.2530534267425537,2.516910137761848
3.255394458770752,2.5153836626271797
3.257753849029541,2.5002297759330006
3.260119676589966,2.5170299431121284
3.2624876499176025,2.5183507821978073
3.2648253440856934,2.518065275915298
3.2671732902526855,2.5198003673315488
3.2695086002349854,2.520405950594658
3.2718498706817627,2.522188725732413
3.2741901874542236,2.522390785502289
3.2765212059020996,2.522872391089486
3.278860330581665,2.524242702036226
3.2811930179595947,2.534229461458857
3.28353214263916,2.5172808786965466
3.2858774662017822,2.524479332504193
3.288209915161133,2.525185051582462
3.2905473709106445,2.527002397418308
3.292877674102783,2.5273421439340287
3.2952194213867188,2.528130117431893
3.2975525856018066,2.5291076337227385
3.2998924255371094,2.5344112556470937
3.3022332191467285,2.5307670272311005
3.3045647144317627,2.5317081846842986
3.306903839111328,2.5325140395777272
3.3092355728149414,2.53259271771821
3.311574697494507,2.5339457433159045
3.3139150142669678,2.5351229351905507
3.31624698638916,2.535634343103688
3.318586587905884,2.536255423576286
3.3209192752838135,2.5369933291665707
3.3232593536376953,2.5376525566163726
3.325590133666992,2.5372681066117413
3.327930450439453,2.538555567092367
3.3302700519561768,2.5390949891918884
3.332601547241211,2.5391343282621297
3.3349409103393555,2.5395205664063174
3.337275743484497,2.5394526171031733
3.3396546840667725,2.5399902510631382
3.3419947624206543,2.5400427031567934
3.344329595565796,2.540130918041577
3.3466691970825195,2.5402310538567368
3.348999500274658,2.5394329475680526
3.3513400554656982,2.539993827342251
3.35367488861084,2.539357249660164
3.3560125827789307,2.539335791985487
3.35835337638855,2.5395980524537625
3.3606855869293213,2.5390014098884355
3.3630239963531494,2.5384518549980943
3.365356206893921,2.5390014098884355
3.3676934242248535,2.5383451626712277
3.370033025741577,2.537384335682909
3.372363567352295,2.5380852863890273
3.374701738357544,2.536326949158543
3.3770313262939453,2.535441820078113
3.3793704509735107,2.534988824723819
3.3817038536071777,2.5344023149493116
3.3840410709381104,2.526961866255029
3.3864364624023438,2.5367763682337245
3.388779878616333,2.5315848030549053
3.3911242485046387,2.5308945811861254
3.393479824066162,2.5367704077685365
3.3958230018615723,2.5294497644245344
3.398167371749878,2.5291445886069046
3.4005026817321777,2.5288650427895836
3.402844190597534,2.5278118285908495
3.4051766395568848,2.5277999076604734
3.407517433166504,2.527387443469458
3.4098691940307617,2.5259253413588216
3.4122018814086914,2.5195893668638907
3.414541721343994,2.5250270992549777
3.416876792907715,2.5240519671502075
3.419217824935913,2.5247100025069718
3.4215493202209473,2.5236323504009666
3.4242067337036133,2.52034992222189
3.426680564880371,2.5189498089492095
3.4292240142822266,2.5202485943136925
3.4316141605377197,2.518961133833067
3.433976888656616,2.5187322519698445
3.4363186359405518,2.5193598889541495
3.4386661052703857,2.5194558524436776
3.4410018920898438,2.51831442336016
3.443347215652466,2.518740596621108
3.4456851482391357,2.518867554529614
3.4480278491973877,2.518687548480934
3.450373888015747,2.5190898798811294
3.452707529067993,2.5182655475456177
3.4550514221191406,2.517335118929758
3.4574170112609863,2.517373265906962
3.459829807281494,2.500138580815623
3.462367534637451,2.515955867285236
3.464761972427368,2.500219643142181
3.4671261310577393,2.5170072933444136
3.4694671630859375,2.517080607066227
3.471817970275879,2.516660990316986
3.4741694927215576,2.5148156302947555
3.4765076637268066,2.516987027762774
3.4788713455200195,2.518522443595224
3.481206178665161,2.517307700789893
3.4835519790649414,2.5188449047618993
3.485919952392578,2.5155964512343942
3.4882593154907227,2.5165006538034267
3.4906065464019775,2.5146850961071365
3.4929425716400146,2.519647183376215
3.4952821731567383,2.51950472825822
3.4976165294647217,2.519526781979416
3.499957799911499,2.5195124768629644
3.5023000240325928,2.5207456971103785
3.5046346187591553,2.5214412833978277
3.506974220275879,2.52186030410055
3.5093064308166504,2.521903219449904
3.511645555496216,2.534410063554056
3.5139882564544678,2.5221255448014195
3.5163233280181885,2.5225320485272467
3.5186612606048584,2.5229921964397666
3.5209946632385254,2.5234624771431062
3.5233352184295654,2.5242671399434973
3.525667905807495,2.5244864850624187
3.5280067920684814,2.536790673350176
3.5303454399108887,2.5247195392512727
3.5326974391937256,2.5254973799583174
3.53503680229187,2.5253203541422313
3.5373682975769043,2.52561599321556
3.5397074222564697,2.5342282693658196
3.542046546936035,2.5256302983320116
3.544379234313965,2.517937721960273
3.5468502044677734,2.5236514238895684
3.549208402633667,2.5229367641135174
3.5515666007995605,2.52414077808151
3.553919792175293,2.5367447777682277
3.55625581741333,2.525253596932125
3.5585978031158447,2.525625529959861
3.5609307289123535,2.5366839810233093
3.5632758140563965,2.5255379111215963
3.565610408782959,2.536824648001748
3.5679521560668945,2.5253781706545557
3.5702974796295166,2.525930705777491
3.572634220123291,2.5262263448508198
3.574974298477173,2.5262078674087367
3.577305555343628,2.525955143684762
3.5796470642089844,2.526229325083414
3.581990957260132,2.534326020994904
3.584333896636963,2.526729408112694
3.586674928665161,2.5268647106724633
3.5890133380889893,2.521247568279215
3.591358184814453,2.525889578567693
3.5936906337738037,2.525299492514073
3.5960347652435303,2.5197514915170065
3.5983762741088867,2.5262984664795956
3.6007072925567627,2.5263980062482365
3.6030473709106445,2.5265261562497803
3.605379343032837,2.52642125206247
3.6077189445495605,2.5366243763714285
3.610060930252075,2.526409331132094
3.612391710281372,2.526169124385014
3.6147327423095703,2.526912990440487
3.6170663833618164,2.527145448582822
3.6194050312042236,2.527486983238099
3.6217353343963623,2.528189126037255
3.6240897178649902,2.5237002997041107
3.6264917850494385,2.5261309774078105
3.628843307495117,2.536920611491276
3.631192207336426,2.526405754852981
3.6335289478302,2.52697140299933
3.6359007358551025,2.5274607571912715
3.638251304626465,2.527293864166005
3.6405861377716064,2.527321878352389
3.6429688930511475,2.527623477890906
3.645336866378784,2.527847591381978
3.64768123626709,2.5278797778939937
3.6500391960144043,2.528509203017855
3.652376890182495,2.5288590823243955
3.6547255516052246,2.529605928612462
3.657097101211548,2.529641095357072
3.659454584121704,2.5301048195487046
3.661803722381592,2.529815140940564
3.66416597366333,2.5315663256128222
3.666520833969116,2.532611791206812
3.668856620788574,2.534027401688981
3.6712019443511963,2.5358220977571126
3.673535108566284,2.53648847776514
3.6758804321289062,2.5381150887149677
3.6782240867614746,2.5392434047750716
3.6805593967437744,2.5407412696768366
3.6829020977020264,2.5420120408549356
3.685235023498535,2.5436309032000186
3.6875758171081543,2.5461360867185694
3.6899192333221436,2.546279733929602
3.692250967025757,2.543163602729273
3.6945908069610596,2.5486663041909106
3.6969246864318848,2.5498476683911884
3.6992664337158203,2.552061385162042
3.7015984058380127,2.5536593858789667
3.7039389610290527,2.55533308450378
3.7062792778015137,2.5571248003393174
3.7086124420166016,2.558437294773733
3.710951566696167,2.558832473615703
3.713285207748413,2.5617793276046905
3.715625762939453,2.562672205289865
3.717965602874756,2.5647398906636107
3.7202982902526855,2.565914102305663
3.7226622104644775,2.5672009667397697
3.7250001430511475,2.5757816524245323
3.7273447513580322,2.5694486581621954
3.72967791557312,2.5734630314663685
3.7320163249969482,2.571239181904695
3.734361171722412,2.572237559823699
3.736693859100342,2.5730154005307435
3.739037275314331,2.5735494582115956
3.7413699626922607,2.57232696680152
3.7437219619750977,2.5736621110036504
3.746068000793457,2.5740447728687252
3.748401165008545,2.574585983107803
3.7507410049438477,2.574440547757214
3.7530739307403564,2.5743481605467986
3.7554144859313965,2.5750640124158872
3.757746696472168,2.574158021707299
3.7601025104522705,2.5733921019306303
3.7624425888061523,2.5757530421916295
3.7647745609283447,2.5733628956512087
3.767112970352173,2.57246703773344
3.7694432735443115,2.5710418905069696
3.7717835903167725,2.5758466214950824
3.7741241455078125,2.569300242579012
3.776456594467163,2.5681904039609913
3.778796911239624,2.573386737511961
3.7811291217803955,2.565737076489577
3.783468246459961,2.5646600204300904
3.785820960998535,2.5635132269279035
3.7881557941436768,2.5619712545837467
3.7904953956604004,2.5608435345701617
3.7928285598754883,2.55603820753553
3.795168876647949,2.553413218666699
3.797501564025879,2.5363597317170776
3.8001017570495605,2.5284668837150197
3.8026654720306396,2.523634138540523
3.805213212966919,2.5193390273259912
3.807791233062744,2.5002047419792106
3.8104653358459473,2.5114348544400755
3.8132100105285645,2.5109103335035243
3.815861225128174,2.5196650647717793
3.818347215652466,2.5255563885636794
3.820756196975708,2.5272372397467184
3.823119640350342,2.52743155091185
3.8254554271698,2.5272688302122153
3.8278050422668457,2.5274661216099408
3.8301515579223633,2.5276747378915236
3.8324849605560303,2.528415623714402
3.8348255157470703,2.528829876044974
3.837157726287842,2.534444634252147
3.839498281478882,2.5290665065129407
3.841850996017456,2.5280764732452004
3.8441884517669678,2.519715728725878
3.8465263843536377,2.5282785330150763
3.8488564491271973,2.5287094746481746
3.851194143295288,2.529208961630936
3.853524684906006,2.528515163483043
3.855863332748413,2.5195500277936493
3.8582875728607178,2.5280448827797035
3.8606295585632324,2.52671629508928
3.8629891872406006,2.5270691546284145
3.865330934524536,2.5269922646274883
3.8676788806915283,2.5270137223021654
3.870021104812622,2.526757422299078
3.8723559379577637,2.5265726478782473
3.874695062637329,2.5267794760202738
3.8770270347595215,2.525868716939535
3.8794643878936768,2.53663868148788
3.8819024562835693,2.524833980182884
3.8842525482177734,2.5343593995999574
3.886596202850342,2.524233165291925
3.888929605484009,2.523966732498018
3.8912746906280518,2.524684968553182
3.8936102390289307,2.5243976741311163
3.895951986312866,2.5168088098536505
3.8982911109924316,2.5222781327102344
3.9006242752075195,2.5219199087524307
3.9029712677001953,2.5228962329502385
3.9053051471710205,2.5227430489949048
3.907684326171875,2.5233462480719386
3.910032272338867,2.536759678931198
3.9123640060424805,2.5236234097031844
3.9147067070007324,2.5245985418079546
3.9170680046081543,2.5246295362269326
3.919407844543457,2.524414363433643
3.921739101409912,2.536917631258682
3.924090623855591,2.5251773029777174
3.926431179046631,2.5257638127522246
3.9287631511688232,2.5265124471798477
3.9311020374298096,2.527430954865331
3.9334332942962646,2.5280103120816126
3.9357712268829346,2.5278678569636175
3.9381117820739746,2.5283774767371985
3.940443515777588,2.5286290083681355
3.942782163619995,2.5368264361413044
3.9451117515563965,2.5367453738147465
3.947448492050171,2.5291129981414078
3.9497885704040527,2.534270588668655
3.9521281719207764,2.5307664311845817
3.9544689655303955,2.5308468974646208
3.9568004608154297,2.531241480260072
3.959136962890625,2.536756102652085
3.961467981338501,2.536917631258682
3.9638051986694336,2.532425228646425
3.966142177581787,2.5329944530718866
3.9684741497039795,2.536647622185662
3.9708399772644043,2.5337222258713514
3.9731743335723877,2.5341728370395704
3.9755148887634277,2.534466091926824
3.9778692722320557,2.5350955170506855
3.980201005935669,2.5349333923975697
3.982541561126709,2.5347068947204225
3.984873056411743,2.534286085878144
3.9872124195098877,2.5347808044887548
3.9895453453063965,2.5344118516936125
3.991882085800171,2.5358006400824356
3.994218587875366,2.5352290314708985
3.9965507984161377,2.535146181004784
3.9988911151885986,2.5284490023194555
4.001223564147949,2.53473312076725
4.003563404083252,2.5353106898439752
4.005902051925659,2.535441820078113
4.008232593536377,2.535270754727215
4.010570287704468,2.5357052726394262
4.012902021408081,2.535584871242627
4.015238523483276,2.5358256740362255
4.017568588256836,2.535705868685945
4.019907712936401,2.5368824645140724
4.0222485065460205,2.5363913221825745
4.024579286575317,2.53427297285473
4.027178764343262,2.5206998015284303
4.0298402309417725,2.518413963128801
4.032924175262451,2.521648707586373
4.035519361495972,2.5196209573293875
4.037935256958008,2.534316484250603
4.040282964706421,2.5279894504534544
4.04263162612915,2.5287994776725147
4.044968605041504,2.5285074148782987
4.04731011390686,2.5292280351195378
4.049644231796265,2.5295302307045735
4.051983833312988,2.5297358667535623
4.05432653427124,2.529678050241238
4.056660890579224,2.5275042685871445
4.059061050415039,2.529721561637111
4.061402797698975,2.528034749988884
4.063807010650635,2.5342974107620013
4.066158056259155,2.529864612801625
4.068497180938721,2.5302663481553016
4.070840120315552,2.530451122576132
4.07317328453064,2.5296148693102443
4.075514316558838,2.529892626988009
4.077874422073364,2.527332011143209
4.080299377441406,2.5342944305294073
4.082658052444458,2.5290551816290834
4.084996461868286,2.519787850354654
4.087343692779541,2.528497282087479
4.0896806716918945,2.5292822753527493
4.092024087905884,2.519834341983121
4.0943708419799805,2.5285914574374506
4.096706390380859,2.5277712974275706
4.099049091339111,2.527458969051715
4.101380825042725,2.52081007013441
4.103723526000977,2.5263544948523635
4.106070041656494,2.5265899332272928
4.108405590057373,2.526219788339113
4.110745191574097,2.5262454183394216
4.113078355789185,2.5259438188009047
4.1154186725616455,2.519765200586939
4.117751598358154,2.5198331498900832
4.120104551315308,2.5367733880011305
4.122458219528198,2.525559964842792
4.124819993972778,2.5258514315904894
4.127164840698242,2.5257799060082324
4.129500389099121,2.526083293686306
4.131841421127319,2.5255492360054537
4.134183883666992,2.52542108600391
4.136516332626343,2.5258824260094674
4.138854742050171,2.525787654612977
4.14118504524231,2.524625363901301
4.143523216247559,2.524988952277774
4.145869016647339,2.524265351803941
4.1482014656066895,2.5247100025069718
4.150538206100464,2.524183693430864
4.152868747711182,2.523956599707198
4.155207633972168,2.524681392274069
4.157538414001465,2.524843516927185
4.1598756313323975,2.5248065620430187
4.162215709686279,2.5343903940189354
4.164549827575684,2.5249251753002615
4.166887998580933,2.5246951013440015
4.1692564487457275,2.524616423203519
4.1716015338897705,2.524109187616013
4.173943281173706,2.519762816400864
4.176275730133057,2.525472942051046
4.178647518157959,2.5254634053067453
4.180980205535889,2.524873915299644
4.183319568634033,2.5257119567050883
4.185653924942017,2.5367859049780255
4.187995672225952,2.53688365660711
4.190337181091309,2.519715132679359
4.192670106887817,2.5256523520532075
4.195008754730225,2.525625529959861
4.197338819503784,2.5197264575632166
4.199676036834717,2.525125446930581
4.202014684677124,2.519772353145165
4.204349040985107,2.5208953047865994
4.206686735153198,2.5249710708822097
4.2090184688568115,2.5252392918156734
4.211355209350586,2.5251546532100027
4.213684797286987,2.5253388315843144
4.2160234451293945,2.5254413515855494
4.21836256980896,2.52002984524129
4.220693826675415,2.5001457333738486
4.223031759262085,2.518846096854937
4.225368022918701,2.5182107112658874
4.227708101272583,2.5179055354482576
4.230092287063599,2.5170633217171816
4.232496500015259,2.517726721492615
4.234845399856567,2.5173869749768945
4.237182855606079,2.516937555901713
4.239529848098755,2.5163987298487105
4.241891860961914,2.5003007054687387
4.244225025177002,2.5155863184435745
4.2465643882751465,2.5147756951779954
4.248896837234497,2.515423001697421
4.251237154006958,2.5154021400692628
4.253569602966309,2.5152972358819525
4.255908966064453,2.514012159587402
4.25829553604126,2.515065373786136
4.260639429092407,2.514953913087119
4.263005018234253,2.5146445649438576
4.265348196029663,2.514953913087119
4.267695665359497,2.500172555467195
4.270038604736328,2.515541018908145
4.272371292114258,2.514540256803066
4.274713516235352,2.5155642647223786
4.277047157287598,2.515822352865023
4.279387712478638,2.5156369823976736
4.28171968460083,2.516438068918952
4.284077882766724,2.51659900147903
4.286417007446289,2.517195047997838
4.288751125335693,2.517292203580404
4.291090488433838,2.5179925582400036
4.293423175811768,2.5179001710295883
4.295762538909912,2.518326940337055
4.298102617263794,2.518808545924252
4.300436019897461,2.5210478926954143
4.302777051925659,2.524969878789172
4.305107831954956,2.52290040527587
4.30744743347168,2.520942988508104
4.309788942337036,2.534389201925898
4.31212592124939,2.528102699292028
4.31446647644043,2.519690694772088
4.316802263259888,2.5307259000213027
4.319140195846558,2.5367143793957685
4.321474075317383,2.532365623994544
4.323812246322632,2.5334581772635194
4.326150178909302,2.5339296500598967
4.328482389450073,2.53483325658241
4.3308188915252686,2.5356647414761473
4.333149433135986,2.536902134049193
4.335485458374023,2.537536923591724
4.337858200073242,2.538529937092058
4.340190887451172,2.5399115729226556
4.342529058456421,2.539154593843769
4.344860076904297,2.5415214945699565
4.347199201583862,2.5426116636528566
4.349531412124634,2.5431242636590317
4.351870536804199,2.5446435862354737
4.354214906692505,2.54620582416127
4.3565473556518555,2.5466391499804435
4.358886480331421,2.5480791983698845
4.361218690872192,2.5494960009450915
4.363555431365967,2.551405733991353
4.365900754928589,2.553959793324446
4.368231534957886,2.5537720386710214
4.370568513870239,2.5552824205496814
4.372900009155273,2.556606835914473
4.375236988067627,2.5584444473319587
4.377568244934082,2.5589522789659833
4.3799052238464355,2.5601103973520276
4.382243871688843,2.562294311796941
4.3845765590667725,2.563629455999071
4.386916160583496,2.5586465071018347
4.389246940612793,2.5665608127785697
4.391584873199463,2.567995496749341
4.393956422805786,2.5758776159140604
4.39628791809082,2.5699445688658438
4.39862585067749,2.5759527177754302
4.400972843170166,2.573324152627486
4.403317451477051,2.57345230262903
4.405651092529297,2.5747779100868593
4.407992124557495,2.570050069099673
4.4103758335113525,2.575260707767094
4.412719011306763,2.5762942524307073
4.415069818496704,2.5734999863505346
4.4174065589904785,2.577743837564449
4.419748783111572,2.5785639975743293
4.422091245651245,2.5791421626975732
4.424426317214966,2.57891864525302
4.42676854133606,2.5787338708321896
4.4291017055511475,2.5790414308358947
4.431445121765137,2.5794795250272187
4.433828592300415,2.57955879921422
4.436174154281616,2.5793340896766295
4.4385175704956055,2.5783267710598436
4.440849542617798,2.5784424040844924
4.443190097808838,2.578185508034886
4.44555139541626,2.5772437545351687
4.447892189025879,2.57738322942057
4.450232267379761,2.5762215347554127
4.452565908432007,2.5748029440406492
4.454904079437256,2.5735184637926176
4.4572367668151855,2.575978943822258
4.459604740142822,2.571454354697985
4.461955547332764,2.568504520476403
4.464306592941284,2.5677570781418178
4.466658353805542,2.567262359531207
4.468993902206421,2.5655695874177917
4.471334934234619,2.563968606468273
4.473670721054077,2.562461800868726
4.476012945175171,2.5610330773631427
4.478359699249268,2.558757371754333
4.480694055557251,2.5584301422155074
4.483033657073975,2.5391843961697096
4.485366344451904,2.5548258489162743
4.487707138061523,2.553300565874644
4.490049600601196,2.539285724077907
4.492380619049072,2.5496605097842826
4.494719505310059,2.54804641581135
4.497051000595093,2.5464716609086584
4.499397277832031,2.5451406890321597
4.5017311573028564,2.5437215022708775
4.504086494445801,2.541805808759428
4.506425619125366,2.5403782773468824
4.508758783340454,2.5382056877858266
4.511099100112915,2.5307670272311005
4.513432025909424,2.5343433063439496
4.515770196914673,2.5332054535395447
4.518114805221558,2.5320246853857857
4.520447254180908,2.5366553707904065
4.522785902023315,2.5297358667535623
4.525117635726929,2.528677288136159
4.527456760406494,2.528372112318529
4.529796600341797,2.5268802078819523
4.532136917114258,2.5266864927633397
4.534478425979614,2.5256297022854928
4.536809682846069,2.5248721271600876
4.5391480922698975,2.523575129935161
4.541481971740723,2.522878947601193
4.543821096420288,2.536924187770389
4.546207427978516,2.5143626349404613
4.5486695766448975,2.5196638726787417
4.551056146621704,2.536774580094168
4.553395509719849,2.5146999972701067
4.555741548538208,2.519268693836772
4.5581042766571045,2.5002166629095868
4.560436725616455,2.518416943361395
4.562779426574707,2.5182917735924453
4.565113067626953,2.5179305694020475
4.567452669143677,2.517748775213811
4.569803714752197,2.5176879784688926
4.5721399784088135,2.517537774746153
4.574481248855591,2.518062891729223
4.576814651489258,2.5176665207942155
4.579155683517456,2.517982425449184
4.581486463546753,2.517614664747079
4.583826541900635,2.5180056712634173
4.58616828918457,2.5175020119550244
4.588499546051025,2.5183960817332367
4.5908362865448,2.5178399703311887
4.593167304992676,2.517835798005557
4.595506429672241,2.518301310336746
4.597858905792236,2.5185522459211644
4.600191831588745,2.51760930032841
4.602588176727295,2.519991698264086
4.604932069778442,2.519426646164256
4.607279300689697,2.536861602885914
4.609613656997681,2.521421613862707
4.611960411071777,2.5195065163977763
4.614303350448608,2.518475355920238
4.616636514663696,2.5219479229388146
4.618975877761841,2.5236162571449587
4.621309280395508,2.5244721799459673
4.6236467361450195,2.5249746471613226
4.625987529754639,2.5257113606585695
4.628319978713989,2.534320060529716
4.6306586265563965,2.526464763458343
4.632992267608643,2.5265505941570514
4.635331392288208,2.527026835325579
4.637705564498901,2.5282195244097143
4.640057802200317,2.5292876397714186
4.642406940460205,2.530432645134049
4.6447434425354,2.5302818453647906
4.647085666656494,2.536660139162557
4.649418830871582,2.5320121684088908
4.651756763458252,2.5366464300926244
4.654099464416504,2.5327774921390405
4.656432151794434,2.5343188684366784
4.65880274772644,2.531980577943394
4.661154508590698,2.5323167481800017
4.663518667221069,2.534146014946224
4.665881872177124,2.5366684838138203
4.668219089508057,2.5352236670522292
4.6706016063690186,2.536641661720474
4.672936201095581,2.535960380549476
4.675279140472412,2.5363162203212046
4.6776123046875,2.536302511251272
4.679953575134277,2.5369444533520285
4.682296991348267,2.5364849014860273
4.684628009796143,2.53699869358524
4.686969041824341,2.536818091490041
4.68930196762085,2.536709611023618
4.691642999649048,2.537451688939534
4.693983316421509,2.5371810838199953
4.696350336074829,2.537970845457416
4.698697090148926,2.5377896473156984
4.70103120803833,2.5374415561487145
4.703373432159424,2.5374820873119934
4.705707788467407,2.5379672691783033
4.708046197891235,2.5359091205488586
4.710389614105225,2.535264198215508
4.712740898132324,2.5368294163738985
4.715086460113525,2.5310561097927224
4.717420339584351,2.5348159712333644
4.719764709472656,2.5351640624003484
4.722144365310669,2.5366237803249096
4.724494457244873,2.534137074248442
4.726844787597656,2.534594241928368
4.729180812835693,2.5338748137801663
4.731520414352417,2.5368502780020568
4.733870029449463,2.532922331443111
4.736203670501709,2.5369015380026743
4.738544464111328,2.53348797958946
4.740877628326416,2.533176247260123
4.743216514587402,2.5323393979477165
4.745550632476807,2.534428540996139
4.74789023399353,2.5310930646768885
4.7503087520599365,2.530193630480007
4.752649545669556,2.5367203398609566
4.754993677139282,2.5295171176811597
4.757327318191528,2.530050579315493
4.759667158126831,2.5367298766052575
4.762032985687256,2.5280627641752678
4.764373302459717,2.527804676032624
4.766717195510864,2.527617517425718
4.769049167633057,2.527769509288014
4.771388053894043,2.5268331202069665
4.773719310760498,2.5259873301967777
4.7760608196258545,2.519709172214171
4.7784037590026855,2.5254657894928205
4.78073525428772,2.5250843197207833
4.783109426498413,2.5368145152109283
4.78544282913208,2.525149884837852
4.787782669067383,2.5249931246034056
4.790122985839844,2.524345222037461
4.7924559116363525,2.5239554076141606
4.794794321060181,2.5237324862161263
4.797122955322266,2.523451152259249
4.799463987350464,2.523755135983841
4.801812648773193,2.5233462480719386
4.804145812988281,2.523777189705037
4.806484222412109,2.523792090868007
4.808818340301514,2.522592845272165
4.811153411865234,2.5367578907916415
4.813483476638794,2.523344459932382
4.815821170806885,2.5228455689961398
4.818159580230713,2.515429558209128
4.820491790771484,2.5218203689837897
4.82282829284668,2.5220081236372143
4.82516074180603,2.521194520139041
4.827500581741333,2.521629634097771
4.82984733581543,2.5212833310703435
4.832180023193359,2.5218203689837897
4.834517955780029,2.5219050075894605
4.836848735809326,2.521415057351
4.839186668395996,2.522089782010291
4.841517210006714,2.5218954708451595
4.843851327896118,2.5221350815457204
4.84618878364563,2.5219538834040027
4.848517894744873,2.5224116471304474
4.850858449935913,2.522366943641537
4.853190660476685,2.523134055511243
4.855527877807617,2.522919478764472
4.857875823974609,2.5209471608337357
4.8602399826049805,2.5227871564372966
4.862605333328247,2.522422375967786
4.864948987960815,2.523118558301754
4.867293357849121,2.536728088465701
4.869626760482788,2.536915247072607
4.871967792510986,2.523689570866772
4.874308824539185,2.523578110167755
4.87664270401001,2.5240263371498988
4.878981590270996,2.53437310866989
4.881310939788818,2.5236633448199446
4.883649587631226,2.5237849383097815
4.88598895072937,2.524258795292234
4.88831901550293,2.5243040948276634
4.890658140182495,2.524761858554108
4.892992973327637,2.5196304940736884
4.895330429077148,2.525542083447228
4.897663593292236,2.5262764127583996
4.900001287460327,2.5266209276462708
4.902340412139893,2.5265505941570514
4.904672622680664,2.527382079050789
4.90700888633728,2.5276353988212823
4.909339427947998,2.526657286483918
4.911677598953247,2.527064982302783
4.9140143394470215,2.5270316036977296
4.9163453578948975,2.5279894504534544
4.918683052062988,2.527294460212524
4.921013116836548,2.522537412945916
4.923350095748901,2.5279119644060093
4.925681114196777,2.527499500214994
4.928024053573608,2.5280764732452004
4.930366516113281,2.5286105309260525
4.9326982498168945,2.5279143485920845
4.935034990310669,2.52936691395842
4.937366008758545,2.5297144090788852
4.939742803573608,2.5294497644245344
4.942080497741699,2.5295916234960107
4.944411516189575,2.529373470470127
4.946746826171875,2.529257837445478
4.94907808303833,2.529009286047135
4.951416492462158,2.5343564193673633
4.953747510910034,2.530165616293623
4.956100225448608,2.5304499304830945
4.958481311798096,2.5304994023441556
4.9608166217803955,2.5300583279202375
4.963156700134277,2.5297322904744495
4.965488433837891,2.5307145751374454
4.9678239822387695,2.5311473049101
4.9701619148254395,2.530348602574897
4.972497940063477,2.5306335128108874
4.974839448928833,2.530196610712601
4.977172136306763,2.536859218699839
4.979510307312012,2.5308480895576584
4.981862545013428,2.5306513942064517
4.984197616577148,2.531844083290587
4.986533880233765,2.531134787933205
4.988864898681641,2.5305751002520442
4.991204500198364,2.5309756435126833
4.99355936050415,2.534447614484741
4.995895862579346,2.5303790009473563
4.9982359409332275,2.529534403030205
5.000587224960327,2.536634509162248
5.00293231010437,2.5303939021103266
5.005263566970825,2.5341936986677287
5.007601737976074,2.531032863978489
5.009942054748535,2.530750337928574
5.012273788452148,2.5303652918774238
5.014614582061768,2.531119886770235
5.0169453620910645,2.5311282314214982
5.01928448677063,2.534391586111973
5.0216169357299805,2.528670731624452
5.023959636688232,2.527919116964235
5.026300430297852,2.5311395563053556
5.028631925582886,2.5307634509519876
5.0309739112854,2.5314757265419634
5.03330659866333,2.5325974860903604
5.035645008087158,2.532959286327277
5.037985563278198,2.533552352613491
5.040319919586182,2.534289066110738
5.042659044265747,2.534497682392321
5.0449888706207275,2.5367459698612653
5.047359466552734,2.5364497347414177
5.0496909618377686,2.5364497347414177
5.052030324935913,2.5380232975510713
5.0543694496154785,2.5392070459374243
5.056701898574829,2.540554111069931
5.059072256088257,2.540777032467965
5.061413526535034,2.5408747840970496
5.063779354095459,2.5440219097163568
5.066133737564087,2.546062772996756
5.068469762802124,2.5469288285885847
5.070811986923218,2.5486323295393385
5.0731446743011475,2.5499340951364156
5.0754876136779785,2.5517425002744796
5.077842473983765,2.5531157914538136
5.080175161361694,2.5549027389172005
5.08251428604126,2.5569841333608787
5.084845781326294,2.55798370337292
5.0871901512146,2.5603225899127233
5.0896501541137695,2.5601199340963285
5.092090606689453,2.5586566398926545
5.094450950622559,2.5651136118309035
5.096787452697754,2.5663152416128208
5.099139928817749,2.5757339687030276
5.101477384567261,2.569887944446557
5.1038219928741455,2.5715640272574456
5.106172800064087,2.573309251464516
5.108504772186279,2.5739482133326783
5.110846996307373,2.574953147763389
5.113180160522461,2.5757864207966827
5.115518569946289,2.5732794491385755
5.117869853973389,2.5773194524430574
5.120203971862793,2.577724764075847
5.122544288635254,2.5790551399058272
5.124875068664551,2.573396274256262
5.127211570739746,2.5782749150127073
5.129544258117676,2.5782683585010004
5.1318840980529785,2.5790050719982474
5.134223699569702,2.5781414005924943
5.136556386947632,2.577972719427671
5.13889479637146,2.5777974817511415
5.141229629516602,2.577966758962483
5.143568515777588,2.577339121978178
5.145953416824341,2.5776180717489803
5.148287773132324,2.576541015689494
5.1506311893463135,2.5770649405795263
5.152966022491455,2.5751307696259937
5.155306816101074,2.575794765447946
5.157639503479004,2.5726422754099696
5.159987926483154,2.5715389933036557
5.162328004837036,2.5705334628264263
5.164660692214966,2.5691226207164073
5.166998863220215,2.567673035582666
5.169328927993774,2.5663074930080763
5.171667098999023,2.5654736239282636
5.174005031585693,2.5638297276293907
5.176337718963623,2.562103576910922
5.1786744594573975,2.5604370308443345
5.181004524230957,2.5590518187346243
5.183344602584839,2.5575563380189346
5.185676574707031,2.5562515921892635
5.188016176223755,2.5555422968318817
5.190352916717529,2.553406066108473
5.192685604095459,2.5521090688835466
5.195023059844971,2.539244596868109
5.197354316711426,2.5486764369817303
5.199690818786621,2.5476530251089367
5.202030658721924,2.5459501202047012
5.204360485076904,2.5442090683232625
5.206700086593628,2.5391259836108664
5.209033250808716,2.5393363880320057
5.2113707065582275,2.5394329475680526
5.213741302490234,2.537756864757164
5.21609354019165,2.536157075900683
5.218433618545532,2.5350853842598657
5.22079873085022,2.5367704077685365
5.2231457233428955,2.5344827812293507
5.225480794906616,2.532306019342663
5.227821350097656,2.5248250394851017
5.230160713195801,2.529279891166674
5.232493877410889,2.5276693734728544
5.234833717346191,2.5196388387249518
5.237164258956909,2.5343588035534386
5.239500999450684,2.526331845084649
5.2418506145477295,2.5248411327411096
5.2441840171813965,2.5249591499518336
5.24652099609375,2.5342527072730907
5.2488508224487305,2.534394566344567
5.251188516616821,2.521315517582359
5.253532409667969,2.5368729277697715
5.255876064300537,2.53666371544167
5.25821852684021,2.5187757633657175
5.260584592819214,2.5195589684914315
5.262951850891113,2.5183710477794468
5.2652974128723145,2.51905948150867
5.267660617828369,2.519050540810888
5.270076274871826,2.5177076480040133
5.2724714279174805,2.518186869405135
5.274817943572998,2.5185206554556676
5.277153730392456,2.5182935617320017
5.279504299163818,2.5181761405677965
5.281867742538452,2.5183317087092054
5.2842018604278564,2.5185027740601034
5.286542892456055,2.518883647785622
5.288874864578247,2.5193253182560587
5.291216850280762,2.519293131744043
5.293550968170166,2.5173148533481187
5.295892000198364,2.519551219886687
5.2982337474823,2.5205805922246687
5.300568103790283,2.5197580480287134
5.302908658981323,2.521570625492409
5.305241823196411,2.5224360850377185
5.30758261680603,2.522810998298049
5.309925317764282,2.536735241023927
5.3122594356536865,2.52341062109597
5.3145997524261475,2.5236520199360872
5.316931962966919,2.523339095513713
5.319273233413696,2.524237337617557
5.321606636047363,2.525411549259609
5.323944091796875,2.5256994397281933
5.326324224472046,2.5257203013563516
5.328657388687134,2.5233319429554872
5.3309972286224365,2.5156834740261407
5.333331823348999,2.5254681736788958
5.335669994354248,2.526073756942005
5.338008642196655,2.5275608930064313
5.340341091156006,2.5274106892836916
5.34268045425415,2.528341117899551
5.345012187957764,2.5286439095311057
5.347353458404541,2.5292095576774547
5.349684953689575,2.530355755133123
5.35202956199646,2.5310096181642554
5.354373455047607,2.530964318628826
5.356707572937012,2.531296316539802
5.359046459197998,2.531996075152883
5.361379146575928,2.5321963467832025
5.3637189865112305,2.5332614819123127
5.3660569190979,2.533555928892604
5.368388414382935,2.53375798866248
5.370728969573975,2.534258667738279
5.373061180114746,2.534749214023258
5.3753979206085205,2.5343498628556564
5.377729177474976,2.5342598598313164
5.38012170791626,2.5346472900685417
5.382464170455933,2.5346514623941734
5.384797811508179,2.534748617976739
5.387136459350586,2.534755174488446
5.389468193054199,2.534515563787885
5.391807317733765,2.5350979012367607
5.394147634506226,2.5347468298371827
5.396479368209839,2.5347200077438363
5.398816347122192,2.5346913975109335
5.401147365570068,2.5342437665753086
5.4034857749938965,2.5347450416976263
5.405838251113892,2.5343212526227537
5.408172130584717,2.534466091926824
5.410508871078491,2.5341609161091943
5.412839889526367,2.5337615649415928
5.415179491043091,2.5341376702949607
5.417513370513916,2.5344237726239887
5.419851779937744,2.534179989597796
5.422194719314575,2.5335255305201447
5.424527168273926,2.533166710515822
5.426865816116333,2.532151643294292
5.429196119308472,2.531448904448617
5.431538820266724,2.5277712974275706
5.433974742889404,2.5289312039531713
5.436316728591919,2.5301978028056387
5.438659191131592,2.5298467314060606
5.440992832183838,2.529087368141099
5.443335294723511,2.5291702186072134
5.445669174194336,2.5293818151213903
5.448008060455322,2.5292781030271176
5.450347661972046,2.529031339768331
5.452680587768555,2.5283995304583944
5.455019235610962,2.5282159481306015
5.457353591918945,2.5267794760202738
5.459724187850952,2.5197491073309313
5.462077379226685,2.5250956446046406
5.4644317626953125,2.525309625304893
5.466780185699463,2.5256022841456276
5.469114780426025,2.525184455535943
5.471457242965698,2.519827785471414
5.473816871643066,2.5241568713375178
5.47615909576416,2.524429860643132
5.478504657745361,2.524302306688107
5.480836868286133,2.5241944222682027
5.483210802078247,2.524097266685637
5.485546350479126,2.523824277380023
5.487890243530273,2.5240674643596965
5.490232944488525,2.5242915778507684
5.492563486099243,2.5240793852900727
5.494904518127441,2.523913684357844
5.497238874435425,2.523522081794987
5.49957799911499,2.5236049322611014
5.501922369003296,2.534475032624606
5.504255533218384,2.5343123119249715
5.506595134735107,2.5233551887697208
5.508924961090088,2.523050012952091
5.511264085769653,2.5343933742515294
5.513596057891846,2.5198355340761585
5.515934944152832,2.52283543620532
5.518273115158081,2.522118392243194
5.520604610443115,2.5222399857330307
5.522945404052734,2.522419395735192
5.525278568267822,2.522890868531569
5.527614593505859,2.534301583087633
5.529953479766846,2.522095742475479
5.532285213470459,2.5343582075069198
5.534625768661499,2.515352072161683
5.536958694458008,2.5341877382025406
5.53929877281189,2.521756592006277
5.541658878326416,2.5219300415432504
5.5439982414245605,2.536812727071372
5.546370029449463,2.513515652837235
5.548827171325684,2.5209346438568407
5.55120062828064,2.5207486773429726
5.55354118347168,2.5211063052542575
5.555891036987305,2.5217744734018415
5.558234930038452,2.5219419624736266
5.560570955276489,2.5210842515330616
5.562917709350586,2.5223639634089428
5.565253257751465,2.5222590592216325
5.567596197128296,2.5195589684914315
5.569940805435181,2.5226411250401886
5.572275400161743,2.523021998765707
5.574620962142944,2.523109021557453
5.576955080032349,2.5228711989964485
5.579299211502075,2.522859874112591
5.581637382507324,2.5239935545913643
5.583978652954102,2.5239154724974004
5.586319446563721,2.5239059357530995
5.588651180267334,2.524099650871712
5.590989828109741,2.534292046343332
5.593324184417725,2.5342002551794356
5.595665693283081,2.524252238780527
5.598008632659912,2.524252238780527
5.600376605987549,2.5000408291865384
5.6030237674713135,2.4933186165474197
5.605618238449097,2.4978342649739105
5.60822319984436,2.4916723360624715
5.610906362533569,2.481069860585911
5.613562107086182,2.47370868607863
5.616233825683594,2.4830737689821443
5.618797063827515,2.480983433840684
5.621273756027222,2.479691204987908
5.623755931854248,2.478662428696445
5.626311540603638,2.475483712611641
5.628798484802246,2.4780943963640207
5.631284236907959,2.4743255942255966
5.633821964263916,2.477822599151444
5.636326313018799,2.4727883902535903
5.638849496841431,2.475719747033089
5.641427755355835,2.47684448681408
5.644182920455933,2.4756440491252003
5.6468634605407715,2.478733358232183
5.649495363235474,2.4811556912846195
5.652081489562988,2.4799463128979577
5.654688358306885,2.483578024337056
5.657253742218018,2.484990058540113
5.659846544265747,2.4838808159686105
5.662451267242432,2.495502530992333
5.664973735809326,2.50890702115381
5.667375564575195,2.513005437017135
5.669721841812134,2.516745032876138
5.672070503234863,2.520405950594658
5.674417972564697,2.523621025517109
5.676753759384155,2.534285489831625
5.679105997085571,2.530153695363247
5.681441307067871,2.53278762492986
5.683783769607544,2.536762063117273
5.68612813949585,2.538014356853289
5.688469409942627,2.5398054766423077
5.690815687179565,2.5420185973666425
5.693147897720337,2.5439879350647847
5.695487976074219,2.5459644253211526
5.697838306427002,2.539133732215611
5.700175523757935,2.5492635428027564
5.702515363693237,2.550352519792619
5.704848527908325,2.5506922663083396
5.70722770690918,2.552421993305921
5.70956826210022,2.552490538655584
5.711917161941528,2.539157574076363
5.7142651081085205,2.55423278263006
5.716597557067871,2.554459876353726
5.71893835067749,2.554876512870373
5.721268653869629,2.553549117272987
5.723633527755737,2.554664916356196
5.725983619689941,2.5545457070524344
5.728316307067871,2.5543496077477466
5.730662107467651,2.5550177758953305
5.732998371124268,2.555354542178457
5.735337495803833,2.5554779238078504
5.737670421600342,2.5549492305456676
5.740010976791382,2.5538727705327
5.742353916168213,2.55410284448896
5.744686126708984,2.5391504215181375
5.747026681900024,2.554568952866668
5.749369144439697,2.5552943414800575
5.751708507537842,2.55558819241383
5.754083156585693,2.5560680098614705
5.756421327590942,2.5558468766029927
5.758763074874878,2.556175298234856
5.761094808578491,2.5564351745170564
5.763438701629639,2.557216591503214
5.765786647796631,2.5571617552234835
5.768125534057617,2.5578120419755033
5.770468711853027,2.5584819982626437
5.772801876068115,2.575688669167598
5.775143384933472,2.5594958733911364
5.777475833892822,2.559823102929962
5.779815912246704,2.5732454744870035
5.782156944274902,2.5613311006225468
5.784490585327148,2.5618544294660603
5.786830186843872,2.5628569797106957
5.789163589477539,2.5624606087756883
5.791511058807373,2.564307160890956
5.793871164321899,2.5652661997397184
5.796207904815674,2.5659182746312945
5.7985475063323975,2.5672045430188826
5.800880432128906,2.5672134837166647
5.803245782852173,2.568207093263518
5.805578708648682,2.5691065274603995
5.807920694351196,2.5696531021181466
5.810261964797974,2.569800325608292
5.81259560585022,2.56956131095425
5.814934253692627,2.573513695420467
5.817266464233398,2.569834896306383
5.81960391998291,2.5696507179320713
5.821942329406738,2.569418259789736
5.824272155761719,2.569036790017699
5.826611518859863,2.5733229605344485
5.828945159912109,2.568573661872585
5.831282377243042,2.568654724199143
5.8336122035980225,2.5758805961466544
5.835950136184692,2.5679943046563034
5.838292121887207,2.566814728595582
5.840624094009399,2.5659087378869936
5.8429648876190186,2.560911483873306
5.845297574996948,2.564288087402354
5.847636938095093,2.5638583378622934
5.849987983703613,2.5628474429663948
5.85232400894165,2.5617888643489914
5.854662895202637,2.561567135043995
5.856992721557617,2.561112947596663
5.859334945678711,2.5539806549526043
5.861697435379028,2.5559905238140255
5.864070415496826,2.5555452770644758
5.86642050743103,2.553711837972622
5.868753671646118,2.5533309642471034
5.8710949420928955,2.552492922841659
5.8734283447265625,2.550918167938968
5.875770330429077,2.5502017200233604
5.878112316131592,2.5481113848819
5.880444765090942,2.546572988816856
5.882782697677612,2.5453379804298852
5.885113954544067,2.5436863355262678
5.887454986572266,2.5426366976066466
5.889804840087891,2.539092605005813
5.892143487930298,2.539825742223947
5.894484043121338,2.538676564535685
5.896816730499268,2.5372955247516065
5.899154186248779,2.535696331941644
5.901484489440918,2.5342652242499857
5.9038238525390625,2.5293305551207728
5.906168460845947,2.5329396167921563
5.908503770828247,2.5320437588743876
5.910845994949341,2.5308689511858167
5.913177728652954,2.5294402276802335
5.915514707565308,2.5289127265110882
5.917860746383667,2.5274518164934894
5.920192718505859,2.5267204674149117
5.922529220581055,2.525528970423814
5.924860000610352,2.523922625055626
5.927198886871338,2.5238743452876027
5.929529190063477,2.522972526904646
5.93186616897583,2.534385625646785
5.934203624725342,2.521564665027221
5.93653416633606,2.520032229427365
5.93886923789978,2.5197413587261868
5.941199779510498,2.518808545924252
5.943536996841431,2.5144931691280803
5.945889711380005,2.5150355714601957
5.94822359085083,2.516287865196212
5.950559616088867,2.500272095235836
5.952890157699585,2.515956463331755
5.95522665977478,2.5001063943036073
5.95759391784668,2.5146910565723246
5.959933280944824,2.514515818895795
5.962271451950073,2.5136813537694636
5.964601039886475,2.5135478393492505
5.966940641403198,2.51332312981166
5.969271659851074,2.512843908410538
5.971612215042114,2.5147697347128073
5.973957777023315,2.512493433057479
5.976287603378296,2.511501611650182
5.978626012802124,2.510972918387999
5.980956792831421,2.511657179791591
5.983293056488037,2.5117495670020062
5.985624313354492,2.512054742819636
5.987959146499634,2.511955799097514
5.990298748016357,2.5119033470038588
5.99267053604126,2.5129571572491116
5.995020866394043,2.5132659093458543
5.997354507446289,2.5130346432965567
5.999701023101807,2.5138428823760606
6.002044200897217,2.514217795636391
6.004377126693726,2.514540256803066
6.006718158721924,2.515277566346832
6.009050369262695,2.5158831496099414
6.011423587799072,2.5163272042664535
6.01375412940979,2.500004470348891
6.016132831573486,2.5001952052349097
6.018480539321899,2.517413201023722
6.020814418792725,2.5178226849821432
6.023153066635132,2.5184461496408166
6.025485277175903,2.5180050752168985
6.027825117111206,2.5192073010453346
6.0301899909973145,2.5189211987163067
6.0325281620025635,2.5196149968641994
6.034871816635132,2.520259323151031
6.037206172943115,2.52121001734853
6.0395448207855225,2.534254495412647
6.041894435882568,2.519637646631914
6.044225692749023,2.5230166343470377
6.046563148498535,2.514951528901044
6.048893690109253,2.5229242471366224
6.051235198974609,2.52427071622261
6.053569316864014,2.5249710708822097
6.0559070110321045,2.5367888852106195
6.058245658874512,2.5343224447157913
6.060615539550781,2.5243750243634016
6.062971591949463,2.525349560421653
6.065323829650879,2.526147666710337
6.067670822143555,2.5263884695039356
6.07002329826355,2.526560726947871
6.072373390197754,2.5274053248650223
6.074714660644531,2.528372112318529
6.077046155929565,2.5281074676641784
6.0793843269348145,2.528839412789275
6.08171534538269,2.536685173116347
6.084056854248047,2.5302109158290524
6.086398124694824,2.52978712675418
6.088932514190674,2.5289520655813296
6.091317892074585,2.5294497644245344
6.093665361404419,2.529754940242164
6.096011638641357,2.5294432079128275
6.098360300064087,2.5294497644245344
6.100696563720703,2.5299152767557236
6.103039026260376,2.5299093162905355
6.105395078659058,2.52863675697288
6.107751369476318,2.528854313952245
6.110097885131836,2.5293996965169545
6.112432241439819,2.528487745343178
6.1147778034210205,2.5288316641845303
6.117112398147583,2.528472844180208
6.119450330734253,2.5288847123247042
6.121792316436768,2.528655830461482
6.124132871627808,2.5196209573293875
6.126475095748901,2.5284925137153285
6.128834247589111,2.5296482479152975
6.131211757659912,2.5285980139491575
6.1335484981536865,2.5280669365008994
6.135895490646362,2.5277522239389687
6.138250827789307,2.5276199016117933
6.1405885219573975,2.527613941146605
6.142931938171387,2.5270095499765337
6.145267009735107,2.5274476441678577
6.1476075649261475,2.525625529959861
6.1499481201171875,2.5210478926954143
6.152280569076538,2.525044980650542
6.154619216918945,2.5262984664795956
6.156951189041138,2.5257983834503155
6.159289598464966,2.525768581124375
6.161619424819946,2.5250247150689025
6.163957834243774,2.5249782234404354
6.1662986278533936,2.52439588599156
6.168630599975586,2.5244715838994485
6.170968770980835,2.524333897153604
6.173298597335815,2.523969712730612
6.175635099411011,2.523596587609838
6.177974224090576,2.522583308527864
6.180307626724243,2.5225940373652027
6.1826677322387695,2.5226631787613845
6.184999465942383,2.5223770764323565
6.187338352203369,2.522453370386764
6.1896679401397705,2.5214263822348575
6.19200587272644,2.521779241773992
6.194343566894531,2.5196245336085004
6.196673393249512,2.521122994556784
6.199008941650391,2.520526948037976
6.201357126235962,2.5197604322147886
6.2037012577056885,2.5209763671131573
6.2060418128967285,2.5208911324609677
6.208375692367554,2.5199076557049342
6.21071982383728,2.5149467605288933
6.213060140609741,2.5194105529082482
6.215407609939575,2.5191089533697313
6.217740535736084,2.5182345531266397
6.22009539604187,2.5185206554556676
6.222436189651489,2.51856953127021
6.224771022796631,2.518453898245561
6.227111577987671,2.518357934756033
6.229444742202759,2.50009506941975
6.231784820556641,2.51824945428961
6.2341225147247314,2.518466415222456
6.236476421356201,2.5182744882434
6.2388153076171875,2.517994942426079
6.24114727973938,2.5175794980024695
6.243488550186157,2.518161835451345
6.245842218399048,2.5185617826654654
6.248176097869873,2.518345417779138
6.250516176223755,2.5160220284488237
6.25285005569458,2.508449853473884
6.2551867961883545,2.516481580314825
6.2575178146362305,2.5166323800840833
6.259857177734375,2.500261962445016
6.262244462966919,2.5147250312238967
6.264601945877075,2.515597047280913
6.266951084136963,2.5161781926367515
6.2692883014678955,2.5001546740716307
6.271627902984619,2.5167003293872274
6.273968696594238,2.517254652649719
6.276303768157959,2.5173953196281578
6.278676748275757,2.5181111714972464
6.281012535095215,2.518217863824113
6.283352375030518,2.5185963533635563
6.285684108734131,2.5188216589476657
6.288023471832275,2.519914212216641
6.290375232696533,2.5195869826778154
6.292707443237305,2.519585194538259
6.295045375823975,2.520141901986826
6.297377109527588,2.520442309432305
6.29971718788147,2.5213328029314046
6.302055835723877,2.521648111539854
6.304388523101807,2.5221255448014195
6.306725740432739,2.522713842715483
6.309057712554932,2.5227567580648373
6.311397075653076,2.5225070145734567
6.313729524612427,2.5225237038759833
6.31608247756958,2.5233677057466157
6.318419456481934,2.5236853985411405
6.320749044418335,2.519455256397159
6.3232762813568115,2.5220856096846593
6.325727701187134,2.534238998203158
6.3281121253967285,2.5367644473033484
6.3304688930511475,2.5220975306150355
6.3328046798706055,2.519805731750218
6.335148572921753,2.5234064487703383
6.337482690811157,2.523591223191169
6.3398284912109375,2.5238874583110165
6.342176914215088,2.5235834745864243
6.344513654708862,2.523556056446559
6.346855640411377,2.5238040117983833
6.349188327789307,2.524249854594452
6.35152792930603,2.5246796041345125
6.353915691375732,2.500182092211496
6.356251001358032,2.5241324334302466
6.358590364456177,2.5241389899419535
6.36092209815979,2.524733844367724
6.363261699676514,2.5248631864623055
6.365594148635864,2.5247517257632883
6.367934226989746,2.52510100902331
6.370275020599365,2.525470557864971
6.372607469558716,2.526269260200174
6.374948740005493,2.534192506574691
6.377279758453369,2.5258889825211743
6.379618406295776,2.5260415704299892
6.381957530975342,2.526526752296299
6.384289741516113,2.5269380243942767
6.386627435684204,2.5271692904435743
6.388960123062134,2.52715140904801
6.391298532485962,2.5274047288185035
6.393631458282471,2.528258267433437
6.395971059799194,2.5275483760295363
6.398308038711548,2.5282290611540152
6.400640249252319,2.527931037894611
6.402980804443359,2.5283989344118756
6.405314922332764,2.529217306282199
6.407654047012329,2.534382645414191
6.410022258758545,2.5303652918774238
6.412373781204224,2.5303128397837686
6.41471791267395,2.5312897600280952
6.417051553726196,2.532141510503472
6.419389247894287,2.5344798009967566
6.421722173690796,2.534298602855039
6.4240617752075195,2.5346145075100073
6.42642879486084,2.536635105208767
6.428770303726196,2.536926571956464
6.431118488311768,2.5361791296218787
6.433454751968384,2.538508479417381
6.435796737670898,2.540121381297276
6.438142776489258,2.5407412696768366
6.440478801727295,2.5424876859769445
6.442819356918335,2.543089096914422
6.445150375366211,2.539223735239951
6.447489023208618,2.545223539498274
6.449839115142822,2.539192740820973
6.452174425125122,2.54698128068224
6.454516172409058,2.5473025497558774
6.456847667694092,2.5390920089592943
6.4592061042785645,2.54804641581135
6.461616039276123,2.550414508630575
6.463992118835449,2.556184238932638
6.46634316444397,2.55316764750095
6.468682527542114,2.5543782179806493
6.471024751663208,2.5560954280013357
6.4733593463897705,2.5555899805533864
6.475707769393921,2.5564619966104027
6.478049278259277,2.558142251746923
6.48038125038147,2.55864889128791
6.482718467712402,2.5601103973520276
6.485049486160278,2.5608494950353498
6.487391233444214,2.5613263322503963
6.489725351333618,2.5620427801660037
6.4920654296875,2.5624325945893043
6.494404554367065,2.5624296143567102
6.49673867225647,2.5757065505631624
6.499078273773193,2.5624385550544924
6.501411437988281,2.5628039315705218
6.503752708435059,2.5628665164549966
6.506092071533203,2.562563724823442
6.508422136306763,2.562237091331135
6.510761022567749,2.5758531780067893
6.513094186782837,2.562246628075436
6.515442848205566,2.5619414522578063
6.517784595489502,2.5759551019615055
6.520124673843384,2.5587192247771293
6.522463321685791,2.560205168748518
6.524792671203613,2.559820718743887
6.527130603790283,2.5732699123942746
6.529463052749634,2.557974166628619
6.531804323196411,2.556760019869807
6.534143686294556,2.5561335749785394
6.536474704742432,2.555084533105437
6.538816213607788,2.554249471932587
6.541181802749634,2.5393208908225167
6.543526649475098,2.5521907272566233
6.545879125595093,2.539251749426335
6.5483362674713135,2.5392314838446954
6.550715446472168,2.5477412399937203
6.553057670593262,2.5392040657048303
6.5554070472717285,2.5457289869462234
6.557746171951294,2.5410965134020462
6.5601067543029785,2.5391253875643476
6.562453031539917,2.5416144778268905
6.5647876262664795,2.539242212682034
6.567136287689209,2.540031378272936
6.569471597671509,2.5342133682028494
6.57181191444397,2.5382021115067137
6.574163436889648,2.5371936007968903
6.576495409011841,2.535820905664075
6.578836441040039,2.5349333923975697
6.581170320510864,2.533919517269077
6.583512783050537,2.5330749193519257
6.5858681201934814,2.532424632599906
6.588200330734253,2.530942860954149
6.5905396938323975,2.5307640469985064
6.592872142791748,2.529779974195954
6.595210313796997,2.5284948979014037
6.597543478012085,2.528820339300673
6.599880933761597,2.5280573997565985
6.6022210121154785,2.526344362061544
6.604552984237671,2.5262919099678887
6.606889724731445,2.5241145520346824
6.6092469692230225,2.5235393671440325
6.61159873008728,2.5226405289936698
6.6139442920684814,2.534342114250912
6.61627984046936,2.5213494922339312
6.618619918823242,2.5208857680422985
6.620952129364014,2.5204446936183804
6.623294353485107,2.520141901986826
6.6256256103515625,2.519578638026552
6.6279990673065186,2.5202181959412333
6.630340576171875,2.5191929959288832
6.632672548294067,2.5187358282489574
6.635012149810791,2.5002452731424896
6.6373701095581055,2.51818448521906
6.639718055725098,2.51873940452807
6.642061471939087,2.5179961345191164
6.644394874572754,2.517540754978747
6.646735429763794,2.5172504803240874
6.649068117141724,2.5172337910215608
6.6514105796813965,2.5175479075369727
6.653744697570801,2.517401280093346
6.656100749969482,2.517870368703648
6.6584413051605225,2.5177249333530587
6.660773515701294,2.5001731515137138
6.663153409957886,2.496285140071528
6.665711402893066,2.4914398779201363
6.668328285217285,2.488271890672671
6.6709113121032715,2.485614119245305
6.673529863357544,2.4828955510730206
6.67616605758667,2.478161749620646
6.678776979446411,2.4985155461449082
6.681191921234131,2.5000473856982453
6.683557748794556,2.503901422488859
6.685936212539673,2.5049498683154425
6.688278436660767,2.500078976163742
6.690627574920654,2.508792580222199
6.69296407699585,2.507477105555189
6.6953284740448,2.510823906758297
6.697667360305786,2.512058319098749
6.700011730194092,2.5141873972639317
6.702359676361084,2.5000086426745227
6.704694509506226,2.5180056712634173
6.707035779953003,2.519598307561673
6.709367036819458,2.520141901986826
6.711710691452026,2.52215534712736
6.714053153991699,2.523243132024185
6.716386318206787,2.5341972749468415
6.718726396560669,2.5261804492688715
6.7210588455200195,2.526622715785827
6.723435878753662,2.528407279063139
6.725843667984009,2.52993196605825
6.728180170059204,2.5369128628865316
6.73052191734314,2.5315961279387627
6.732854843139648,2.531847063523181
6.735194444656372,2.532704178417227
6.737527132034302,2.5335106293571745
6.739866495132446,2.5339767377348825
6.742211103439331,2.535019223096278
6.744546413421631,2.5349268358858628
6.746887922286987,2.535295192634486
6.749221324920654,2.536044423108628
6.751558780670166,2.536377017066123
6.753903865814209,2.5366118593945335
6.756237506866455,2.537184660099108
6.758578777313232,2.537390296148097
6.760909795761108,2.5368502780020568
6.763247489929199,2.531476322588482
6.765578508377075,2.535886470781144
6.767918348312378,2.5364688082300195
6.7702600955963135,2.5366243763714285
6.772590637207031,2.53686875544414
6.774929046630859,2.535442416124632
6.777259111404419,2.535280291471516
6.7796266078948975,2.5355824870565518
6.781964063644409,2.5353434724025097
6.784298658370972,2.535733882872329
6.786635875701904,2.5352099579822966
6.788968324661255,2.5343957584376047
6.791307210922241,2.5341627042487507
6.793639898300171,2.536700670325836
6.795976877212524,2.533195320748725
6.798316955566406,2.532881800279832
6.800646781921387,2.5322112479461727
6.803008556365967,2.532253567249008
6.805380344390869,2.531324330726186
6.8077309131622314,2.5306513942064517
6.810073137283325,2.5366249724179473
6.812405824661255,2.52945691698276
6.814755439758301,2.5367555066055663
6.817092418670654,2.534382049367672
6.819433212280273,2.5280544195240044
6.821765422821045,2.5274661216099408
6.824120044708252,2.5276091727744547
6.826462268829346,2.5269112023009304
6.82879376411438,2.525940242521792
6.8311357498168945,2.5262990625261144
6.833495378494263,2.526297274386558
6.835834980010986,2.519656124073997
6.838174104690552,2.5249341159980436
6.8405046463012695,2.524721327390829
6.842843055725098,2.5241354136628407
6.845174789428711,2.519547643607574
6.8475120067596436,2.5343129079714903
6.84985876083374,2.5227597382974314
6.85219144821167,2.534395162391086
6.854529857635498,2.522549929922811
6.856861591339111,2.52247542410796
6.85919976234436,2.5196650647717793
6.861529588699341,2.5191047810440996
6.8639161586761475,2.5341841619234278
6.866274356842041,2.5143429654053406
6.868610858917236,2.5366398735809175
6.870954513549805,2.519119086160551
6.873286724090576,2.5186291359220907
6.875634670257568,2.518712582434724
6.877973794937134,2.5192132615105227
6.880303621292114,2.5000277161631246
6.882641792297363,2.518616022898677
6.88497519493103,2.51822442033582
6.887338876724243,2.519535126630679
6.8896753787994385,2.518301310336746
6.8920135498046875,2.518588008712293
6.894352197647095,2.5189211987163067
6.896685600280762,2.518463434989862
6.899022579193115,2.5190392159270307
6.901355028152466,2.5193318747677655
6.903693199157715,2.519805731750218
6.906031131744385,2.519551219886687
6.908361434936523,2.5198349380296396
6.910701036453247,2.5196519517483655
6.913034439086914,2.5202980661747536
6.9153733253479,2.520287337337415
6.917705774307251,2.5205996657132705
6.920044898986816,2.5342509191335343
6.922383069992065,2.5196650647717793
6.9247143268585205,2.520977559206195
6.927053451538086,2.520809474087891
6.929384469985962,2.534344498436987
6.931722640991211,2.5209078217634944
6.93406081199646,2.5207331801334836
6.936392068862915,2.5209227229264646
6.938730716705322,2.5200656080324184
6.941090822219849,2.5204595947813506
6.943430423736572,2.520847025018576
6.945762872695923,2.520275416407039
6.948114633560181,2.520731391993927
6.950452566146851,2.520952525252405
6.952785491943359,2.5207743073432813
6.955122470855713,2.5208613301350273
6.957453966140747,2.5204470778044556
6.959792852401733,2.520538868968352
6.96213173866272,2.5211164380450772
6.964462041854858,2.5213173057219156
6.966799259185791,2.5344839733223883
6.96912956237793,2.5161567349620744
6.971466779708862,2.5195434712819424
6.97381067276001,2.519817652680594
6.976155757904053,2.520943584554623
6.978494167327881,2.5208827878097044
6.980825662612915,2.5341966789003227
6.983165264129639,2.536644641953068
6.9854960441589355,2.5163272042664535
6.987833738327026,2.5149050372725767
6.990171432495117,2.5138643400507377
6.992502689361572,2.5130751744598356
6.994840621948242,2.512207330728451
6.997187852859497,2.511592210721041
6.999525785446167,2.511191667460402
7.001877307891846,2.511433066300519
7.004207134246826,2.5109866274579318
7.006545066833496,2.5114497556030457
7.008875370025635,2.511135639087634
7.011211395263672,2.511352003973961
7.0135414600372314,2.511520089092265
7.015877962112427,2.5109866274579318
7.0182154178619385,2.511548103278649
7.020544528961182,2.511381210253383
7.022882699966431,2.5001189112805022
7.0252156257629395,2.51489848076087
7.027553081512451,2.512854041201358
7.029902458190918,2.512470783289764
7.0322425365448,2.5138989107488285
7.034582853317261,2.5001713633741574
7.03691554069519,2.514487208662892
7.039254903793335,2.5152322668114024
7.0415873527526855,2.515747847050172
7.043934106826782,2.516915502180517
7.046272277832031,2.5175181052110323
7.048603296279907,2.5185236356882617
7.050942420959473,2.5190737866251216
7.053274631500244,2.520241441755467
7.055612564086914,2.52149015921237
7.057950258255005,2.5343224447157913
7.060280799865723,2.5231388238833934
7.062653064727783,2.5218108322394888
7.065008640289307,2.523956599707198
7.067389011383057,2.5255462557728596
7.0697267055511475,2.52841681580744
7.072082757949829,2.5306609309507526
7.0744242668151855,2.53585845659476
7.076756238937378,2.5373795673107584
7.079097509384155,2.540130918041577
7.081428527832031,2.5391939329140105
7.083769798278809,2.5443777494880853
7.086110830307007,2.5461635048584346
7.088441610336304,2.548267549069828
7.090778350830078,2.549386328385631
7.093109130859375,2.5511577786395288
7.0954461097717285,2.5563195414924076
7.097785949707031,2.55385786936973
7.100127458572388,2.5559231705574
7.10246729850769,2.554006880999432
7.104797124862671,2.558751411289145
7.107135534286499,2.5600823831656436
7.109468698501587,2.5586775015208127
7.1118083000183105,2.5757309884704336
7.114147424697876,2.5638577418157746
7.116478204727173,2.5587430666378816
7.118814945220947,2.5662043769603224
7.121145248413086,2.566469617661192
7.123483419418335,2.5672796448802524
7.125835657119751,2.567569919534912
7.128167390823364,2.567811914421548
7.1305177211761475,2.568698235595016
7.132851600646973,2.5687459193165205
7.135193824768066,2.569095798623061
7.137526035308838,2.5686553202456617
7.139865159988403,2.5681987486122546
7.142207622528076,2.5679007253528505
7.1445393562316895,2.5674346169751425
7.1468775272369385,2.5665929992905854
7.149209260940552,2.5662258346349995
7.151570081710815,2.5586935947768206
7.153908729553223,2.5659003932357303
7.1562395095825195,2.5733038870458467
7.1585774421691895,2.5646838622908428
7.160909175872803,2.563645549255079
7.1632466316223145,2.562651343661707
7.165576934814453,2.573361703558171
7.1679136753082275,2.5603774261924537
7.17025351524353,2.559217519666853
7.172585725784302,2.5536409084368836
7.174922466278076,2.5561526484671413
7.17725133895874,2.555035061244376
7.1795878410339355,2.5543186133287685
7.181926965713501,2.552950090521585
7.184258460998535,2.5452217513587176
7.186894655227661,2.5480017123224394
7.189294338226318,2.54597575020501
7.191665410995483,2.544932072750577
7.194018125534058,2.5444641762333124
7.196353197097778,2.5436213664557177
7.19869589805603,2.542840545516079
7.201031446456909,2.541442816429474
7.203376531600952,2.5402823138573543
7.205712556838989,2.5393673824509837
7.208056926727295,2.538680140814798
7.210397720336914,2.5374755308002865
7.212732791900635,2.535712425197652
7.215099811553955,2.5336012284280334
7.217436075210571,2.534379665181597
7.219776153564453,2.5328895488845764
7.222118616104126,2.534447018438222
7.224451541900635,2.5308135188595675
7.226792097091675,2.5299188530348364
7.229124069213867,2.5286635790662264
7.231464147567749,2.5277492437063747
7.2338128089904785,2.5270560416050007
7.236148834228516,2.5261983306644358
7.238488674163818,2.525787654612977
7.240822076797485,2.525253596932125
7.243160724639893,2.524296346222919
7.24549126625061,2.52229541805928
7.247852802276611,2.5229141143458027
7.250200271606445,2.522686424575618
7.25253438949585,2.522341313641228
7.254877805709839,2.522316875733957
7.25721287727356,2.521607580376575
7.259552240371704,2.521549167817732
7.261904001235962,2.5190809391833473
7.264272689819336,2.519684138260381
7.266628265380859,2.5195750617474393
7.26900315284729,2.519706788028096
7.271343231201172,2.5193139933722013
7.2736756801605225,2.5182727001038434
7.276018857955933,2.5086298595225642
7.2783894538879395,2.516741456597025
7.280731678009033,2.517090143810528
7.283076763153076,2.5171318670668446
7.2854108810424805,2.5166323800840833
7.287754058837891,2.5166443010144595
7.290095090866089,2.500274479421911
7.2924275398254395,2.5172629973009824
7.2947680950164795,2.517717780794833
7.297100305557251,2.5173339268367205
7.299442768096924,2.5171193500899496
7.301793336868286,2.517833413819482
7.304134130477905,2.5185760877819168
7.306474447250366,2.5188782833669525
7.308807373046875,2.518833579878042
7.311150312423706,2.51952976221201
7.313483715057373,2.534267012389542
7.315821170806885,2.520312967337724
7.318161487579346,2.5205126429215245
7.32049560546875,2.5207123185053253
7.322849988937378,2.521412077118406
7.325182199478149,2.5218823578217457
7.3275206089019775,2.522213759686203
7.329911470413208,2.5230082896957744
7.332250118255615,2.5235739378421234
7.334589958190918,2.5343838375072285
7.336922645568848,2.523705068076261
7.339262962341309,2.5250056415803006
7.341595411300659,2.534202639365511
7.343935012817383,2.5237748055189617
7.346275329589844,2.524941864602788
7.348606586456299,2.5257661969383
7.350945949554443,2.5196334743062825
7.353277683258057,2.526281777177069
7.355616807937622,2.526855769974681
7.357961177825928,2.527599636030154
7.360294342041016,2.5273427399805475
7.362633466720581,2.5280764732452004
7.364965200424194,2.5342288654123384
7.367303133010864,2.5284335051099665
7.369634628295898,2.5344488065777786
7.371971368789673,2.5284853611571028
7.374309539794922,2.528953257674367
7.376665830612183,2.528146210687901
7.379004001617432,2.5250247150689025
7.381336688995361,2.528677288136159
7.383674621582031,2.5297293102418554
7.386013507843018,2.536787097071063
7.388344049453735,2.5302639639692264
7.390683174133301,2.530060116059794
7.393015384674072,2.529897991406678
7.395355224609375,2.5368854447466664
7.397687911987305,2.5303819811799504
7.400025367736816,2.5305935776941273
7.402362108230591,2.529888454662377
7.404707908630371,2.530339065830596
7.40705132484436,2.5308230556038684
7.409385681152344,2.5301852858287437
7.411724328994751,2.536806170559665
7.414066553115845,2.5197389745401115
7.416400194168091,2.529754940242164
7.418739318847656,2.529349032562856
7.421072244644165,2.5197973870989547
7.4234089851379395,2.5368794842814784
7.425741910934448,2.528782788369988
7.428093910217285,2.5294062530286614
7.4304726123809814,2.528199258828075
7.432807445526123,2.528279129061595
7.435154676437378,2.5282660160381814
7.437490463256836,2.528064552314824
7.439830303192139,2.528565231390623
7.442168951034546,2.534469668205937
7.444501638412476,2.519551219886687
7.446840286254883,2.5279703769648525
7.44917106628418,2.5280764732452004
7.45150899887085,2.528478208598877
7.453864812850952,2.527352872771367
7.456201076507568,2.5279614362670704
7.458540201187134,2.5269231232313065
7.46087384223938,2.5267335804383255
7.463214874267578,2.5341972749468415
7.465579032897949,2.5259932906619658
7.467932462692261,2.519541087095867
7.470277547836304,2.5254538685624444
7.472609519958496,2.534429137042658
7.474955797195435,2.5247970252987177
7.477291584014893,2.524737420646837
7.479633808135986,2.5205871487363756
7.481982469558716,2.5214722778168057
7.48433256149292,2.5227931169024846
7.486685276031494,2.5236544041221625
7.489021062850952,2.5231793550466723
7.491367816925049,2.523238959698553
7.493701934814453,2.5225737717835632
7.496043920516968,2.5231608776045893
7.498383522033691,2.534457151229042
7.500717401504517,2.5227150348085208
7.503057956695557,2.536710207070137
7.5053911209106445,2.536769215675499
7.507730722427368,2.5234243301659025
7.510072946548462,2.52281040225153
7.5124053955078125,2.5225690034114128
7.5147459506988525,2.5229963687653982
7.517076730728149,2.5222745564311215
7.519421100616455,2.522444429688982
7.521755218505859,2.5224611189915085
7.524106979370117,2.5228521255078467
7.526447534561157,2.5219729568926046
7.52877950668335,2.521881761775227
7.531115770339966,2.5224182036421543
7.533446788787842,2.5218901064264903
7.535797595977783,2.5367865010245443
7.538159370422363,2.5223836329440634
7.540493488311768,2.5225195315503517
7.542835474014282,2.5225046303873815
7.545168161392212,2.5342968147154825
7.549820184707642,2.5152662414629745
7.552337646484375,2.5149461644823745
7.554708242416382,2.5159767289133943
7.557047128677368,2.517295779859517
7.559390068054199,2.5344094675075373
7.561725616455078,2.5148895400630877
7.5640709400177,2.518756093830597
7.566417694091797,2.519091668020686
7.568750381469727,2.5179746768444393
7.571110010147095,2.5194415473272262
7.573450088500977,2.5189211987163067
7.575792074203491,2.5000748038381104
7.578143835067749,2.5224307206190493
7.590371608734131,2.5006553531474296
7.593040466308594,2.497496902644265
7.595654487609863,2.511541546766942
7.59810471534729,2.5144961493606743
7.6004557609558105,2.5142559426135946
7.602816104888916,2.515621485188184
7.605193376541138,2.515971364494725
7.607544183731079,2.517195047997838
7.609900951385498,2.500281631980137
7.612237930297852,2.5170984884617913
7.614577054977417,2.518453898245561
7.6169114112854,2.5190213345314665
7.619252681732178,2.5186488054572114
7.621590614318848,2.5196746015160802
7.623934030532837,2.5207522536220854
7.626274585723877,2.518503966153141
7.628660202026367,2.536659543116038
7.6310718059539795,2.521629634097771
7.633413791656494,2.521971764799567
7.635755777359009,2.5232848552805014
7.638168811798096,2.5367078228840616
7.640508413314819,2.522888484345494
7.642852306365967,2.5239643483119427
7.64518666267395,2.5195398950028296
7.647528409957886,2.5246331125060455
7.6498799324035645,2.525265517862501
7.652212381362915,2.5254246622830228
7.6545538902282715,2.5261250169426224
7.656887531280518,2.526532712761487
7.659226417541504,2.5262358815951207
7.661557912826538,2.519827189424895
7.663919687271118,2.5242200522685114
7.666295289993286,2.534279529366437
7.668634653091431,2.5277522239389687
7.670977354049683,2.52847165208717
7.673313140869141,2.5280764732452004
7.675652980804443,2.5284680758080573
7.677994728088379,2.5285044346457046
7.680328130722046,2.5290855800015426
7.68267035484314,2.5301978028056387
